=~=~=~=~=~=~=~=~=~=~=~= PuTTY log 2026.03.16 18:34:02 =~=~=~=~=~=~=~=~=~=~=~=
97218,902
7,871
190848,872
42,865
190393,865
190443,865
190494,866
190544,867
190595,868
190646,869
190696,870
190747,871
190797,871
190848,872
timestamp,emg
0,951
50,979
100,1006
150,1023
201,1023
251,1023
302,1023
353,1023
403,1023
453,1023
504,1023
555,1023
605,1017
655,1011
706,1008
756,1002
806,1000
858,976
908,953
958,943
1008,944
1059,941
1110,947
1160,955
1211,949
1261,954
1311,952
1362,950
1413,953
1463,970
1514,965
1564,963
1614,971
1665,1018
1716,1023
1766,1023
1817,1023
1867,1023
1917,1023
1969,1023
2019,1023
2069,1023
2120,1020
2170,1023
2221,1023
2272,1023
2322,988
2372,968
2423,951
2473,948
2524,960
2575,996
2625,1023
2675,1023
2726,1023
2777,1023
2827,1023
2878,1023
2928,1023
2979,1023
3030,1022
3080,991
3131,943
3181,944
3231,945
3281,945
3333,950
3383,957
3433,1017
3484,1023
3534,1023
3586,1023
3636,1023
3686,1023
3737,1023
3787,1023
3837,977
3889,944
3939,943
3989,950
4040,955
4090,953
4141,955
4191,954
4242,953
4292,953
4342,947
4393,947
4444,947
4494,946
4545,947
4595,945
4645,947
4697,946
4747,949
4797,948
4847,948
4898,948
4948,949
4999,950
5050,950
5100,953
5150,953
5201,957
5252,957
5302,957
5353,957
5403,957
5453,957
5504,957
5555,956
5605,955
5655,957
5706,956
5756,955
5807,954
5858,953
5908,950
5958,946
6009,945
6060,944
6110,941
6160,937
6211,939
6261,939
6311,938
6363,941
6413,939
6463,941
6514,939
6564,940
6615,942
6666,943
6716,945
6766,946
6816,949
6867,950
6918,957
6968,959
7019,955
7069,945
7119,946
7171,949
7221,948
7271,951
7322,948
7372,946
7422,946
7473,946
7524,948
7574,945
7624,939
7675,936
7726,937
7776,933
7827,932
7877,932
7927,931
7979,933
8029,935
8079,933
8129,934
8180,938
8230,938
8281,959
8332,1023
8382,1023
8432,1023
8483,1023
8534,1016
8584,969
8635,954
8685,952
8735,951
8786,952
8837,956
8887,960
8938,962
8988,959
9038,954
9090,953
9140,951
9190,948
9240,947
9291,944
9341,944
9392,942
9443,944
9493,942
9543,939
9594,942
9645,941
9695,942
9746,941
9796,947
9846,953
9896,969
9948,978
9998,1000
10048,1023
10099,1023
10149,1023
10201,996
10251,955
10301,953
10352,954
10402,953
10452,953
10504,953
10554,953
10604,953
10655,951
10705,947
10757,944
10807,944
10857,941
10908,940
10958,940
11009,941
11060,942
11110,942
11160,941
11211,942
11261,944
11312,945
11363,946
11413,946
11463,949
11514,951
11565,951
11616,949
11666,948
11716,950
11767,950
11817,948
11868,949
11919,950
11969,950
12019,947
12070,948
12121,943
12171,940
12222,939
12272,937
12322,935
12374,933
12424,933
12475,932
12525,935
12575,934
12626,933
12677,934
12727,935
12778,937
12828,939
12878,942
12930,942
12980,944
13030,944
13081,945
13131,946
13181,946
13233,945
13283,944
13334,947
13384,946
13434,949
13486,945
13536,943
13586,940
13637,938
13687,935
13737,933
13789,933
13839,930
13889,930
13940,930
13990,931
14041,933
14092,931
14142,931
14193,934
14243,935
14294,938
14345,938
14395,941
14445,942
14496,943
14546,944
14597,945
14648,944
14698,944
14748,944
14799,945
14850,947
14900,946
14951,943
15001,941
15052,940
15102,936
15153,935
15204,933
15254,931
15304,931
15355,930
15406,929
15456,930
15507,932
15557,931
15607,929
15659,933
15709,936
15759,937
15810,939
15860,942
15911,943
15962,942
16012,944
16063,947
16113,944
16163,943
16215,943
16265,944
16315,945
16366,944
16416,943
16466,940
16518,942
16568,936
16618,935
16669,934
16719,932
16770,930
16821,930
16871,929
16922,929
16972,932
17022,930
17074,931
17124,931
17174,933
17225,935
17275,937
17326,940
17377,941
17427,942
17477,943
17528,943
17579,944
17629,945
17680,943
17730,943
17781,944
17831,942
17882,942
17933,941
17983,940
18033,938
18084,934
18135,933
18185,931
18236,932
18286,927
18336,928
18387,928
18438,929
18488,932
18539,931
18589,931
18640,931
18691,932
18741,935
18792,937
18842,939
18892,941
18944,942
18994,942
19044,943
19095,943
19145,944
19195,942
19247,942
19297,944
19347,945
19398,943
19448,942
19500,940
19550,939
19600,938
19651,936
19701,932
19751,930
19803,928
19853,928
19903,928
19954,928
20004,929
20055,929
20106,930
20156,931
20206,933
20257,936
20307,938
20359,939
20409,941
20459,941
20510,941
20560,941
20611,940
20662,940
20712,941
20762,941
20813,942
20864,942
20914,940
20965,937
21015,934
21065,932
21116,931
21167,926
21218,926
21268,926
21318,925
21369,924
21420,925
21470,927
21521,927
21571,927
21621,927
21672,930
21723,933
21773,936
21824,937
21874,936
21924,937
21976,938
22026,939
22077,938
22127,939
22177,938
22228,939
22279,939
22329,937
22380,936
22430,936
22480,935
22532,929
22582,927
22632,927
22683,928
22733,924
22784,924
22835,926
22885,925
22936,926
22986,928
23036,929
23088,928
23138,930
23188,931
23239,933
23289,935
23340,938
23391,938
23441,939
23491,940
23542,940
23592,940
23643,939
23694,941
23744,941
23795,940
23845,940
23896,936
23947,935
23997,936
24047,934
24098,930
24148,929
24199,930
24250,927
24300,928
24350,927
24401,927
24452,928
24502,930
24553,929
24603,930
24654,931
24705,931
24755,934
24806,936
24856,939
24906,938
24957,938
25008,941
25058,940
25109,939
25159,937
25209,941
25261,939
25311,943
25361,940
25412,939
25462,938
25513,935
25564,934
25614,930
25665,927
25715,926
25765,927
25817,925
25867,924
25917,926
25968,927
26018,928
26068,928
26120,928
26170,930
26220,933
26271,933
26321,935
26372,936
26423,938
26473,940
26524,939
26574,939
26625,939
26676,940
26726,937
26776,939
26827,939
26877,939
26928,939
26979,938
27029,936
27079,933
27130,931
27181,930
27231,926
27282,925
27332,925
27383,926
27433,925
27484,927
27535,928
27585,927
27635,927
27686,928
27737,930
27787,931
27838,934
27888,935
27938,939
27990,937
28040,938
28090,937
28141,935
28191,937
28242,935
28293,936
28343,936
28394,938
28444,935
28494,935
28546,932
28596,931
28646,928
28697,926
28747,925
28797,923
28849,922
28899,921
28949,923
29000,924
29050,925
29102,925
29152,925
29202,925
29253,927
29303,931
29353,931
29405,932
29455,934
29505,933
29556,931
29606,927
29657,928
29708,927
29758,928
29808,925
29859,925
29910,923
29961,922
30011,918
30061,917
30112,918
30162,917
30213,917
30264,916
30314,917
30364,918
30415,916
30466,918
30516,919
30567,920
30617,920
30668,919
30718,920
30769,920
30820,921
30870,923
30920,924
30971,925
31022,926
31072,924
31123,926
31173,925
31223,922
31275,923
31325,923
31375,924
31426,925
31476,926
31527,928
31578,924
31628,923
31679,920
31729,918
31779,918
31831,918
31881,917
31931,919
31982,919
32032,920
32082,922
32134,922
32184,921
32234,922
32285,922
32335,924
32387,924
32437,925
32487,926
32538,927
32588,925
32638,926
32690,927
32740,928
32790,921
32841,920
32891,920
32942,920
32993,923
33043,923
33093,923
33144,922
33195,919
33245,918
33296,920
33346,918
33397,917
33447,917
33498,918
33549,918
33599,918
33649,918
33700,920
33751,922
33801,919
33852,920
33902,922
33952,921
34003,925
34054,926
34104,924
34155,925
34205,925
34256,927
34307,923
34357,921
34408,920
34458,920
34508,920
34560,920
34610,920
34660,920
34711,918
34761,918
34811,916
34863,915
34913,916
34963,916
35014,915
35064,916
35116,918
35166,919
35216,919
35267,921
35317,920
35367,921
35419,922
35469,925
35519,923
35570,925
35620,926
35671,926
35722,927
35772,931
35822,932
35873,930
35923,935
35975,928
36025,929
36075,930
36126,926
36176,934
36227,931
36278,928
36328,924
36378,924
36429,926
36480,923
36530,923
36581,922
36631,921
36681,922
36732,923
36783,923
36834,924
36884,925
36934,924
36985,925
37036,928
37086,928
37137,930
37187,931
37237,933
37288,933
37339,933
37389,933
37440,930
37490,930
37540,930
37592,929
37642,930
37693,928
37743,928
37793,926
37844,924
37895,923
37945,922
37996,922
38046,920
38096,921
38148,920
38198,921
38248,920
38299,920
38349,922
38400,923
38451,924
38501,925
38552,927
38602,926
38652,929
38704,930
38754,930
38804,931
38855,932
38905,931
38956,933
39007,934
39057,927
39107,926
39158,927
39208,927
39259,928
39310,928
39360,925
39411,924
39461,925
39512,917
39563,916
39613,916
39663,915
39714,915
39764,915
39815,916
39866,914
39916,918
39966,915
40017,916
40068,916
40118,917
40169,918
40219,918
40270,919
40321,919
40371,922
40422,920
40472,916
40522,919
40573,918
40624,919
40674,919
40725,919
40775,919
40825,921
40877,920
40927,918
40977,919
41028,917
41078,916
41129,916
41180,918
41230,916
41281,917
41331,918
41381,917
41433,918
41483,920
41533,920
41584,919
41634,921
41684,920
41736,922
41786,922
41836,923
41887,922
41937,924
41989,927
42039,926
42089,927
42140,926
42190,925
42241,924
42292,923
42342,922
42392,921
42443,918
42493,920
42544,922
42595,918
42645,918
42695,917
42746,917
42797,918
42848,917
42898,917
42948,918
42999,919
43049,919
43100,920
43151,920
43201,920
43251,920
43302,921
43353,923
43403,924
43454,925
43504,923
43555,925
43606,924
43656,923
43707,922
43757,924
43807,924
43858,921
43909,922
43959,922
44010,923
44060,922
44110,920
44162,919
44212,918
44262,919
44313,918
44363,918
44414,918
44465,918
44515,919
44566,920
44616,920
44666,922
44718,922
44768,921
44818,921
44869,923
44919,923
44969,924
45021,925
45071,926
45121,926
45172,927
45222,926
45274,925
45324,925
45374,925
45425,922
45475,920
45526,921
45577,920
45627,923
45677,921
45728,919
45778,920
45829,919
45880,919
45930,916
45980,917
46031,917
46082,919
46133,919
46183,920
46233,921
46284,922
46334,921
46385,921
46436,920
46486,922
46536,925
46587,923
46638,924
46688,922
46739,924
46789,920
46839,918
46891,917
46941,913
46992,918
47042,915
47092,916
47143,922
47194,920
47244,922
47295,921
47345,921
47395,919
47447,917
47497,919
47547,918
47598,918
47648,919
47698,919
47750,920
47800,922
47851,920
47901,921
47951,921
48003,922
48053,922
48103,925
48154,925
48204,923
48254,926
48306,925
48356,924
48406,925
48457,922
48507,920
48558,920
48609,920
48659,919
48710,920
48760,919
48811,921
48862,920
48912,919
48962,917
49013,917
49063,918
49114,917
49165,920
49215,918
49265,918
49316,920
49367,920
49417,922
49468,922
49518,923
49569,922
49619,924
49670,924
49721,926
49771,926
49821,924
49872,925
49923,924
49973,926
50024,922
50074,925
50124,921
50176,920
50226,923
50276,925
50327,923
50377,922
50428,927
50479,924
50529,922
50580,922
50630,920
50680,919
50732,920
50782,919
50832,921
50883,920
50933,922
50983,923
51035,923
51085,923
51135,926
51186,926
51236,927
51288,926
51338,928
51388,929
51439,929
51489,929
51539,930
51591,928
51641,927
51691,928
51742,927
51792,928
51843,927
51894,926
51944,926
51994,925
52045,922
52096,921
52147,919
52197,918
52247,919
52298,918
52348,919
52399,919
52450,919
52500,921
52550,921
52601,924
52652,923
52702,923
52753,923
52803,925
52853,927
52904,928
52955,930
53006,932
53056,932
53106,932
53157,932
53208,931
53258,932
53309,931
53359,931
53409,929
53460,930
53511,933
53561,930
53612,932
53662,926
53712,924
53764,921
53814,921
53865,922
53915,919
53965,920
54017,921
54067,921
54117,922
54168,923
54218,924
54268,922
54320,923
54370,923
54420,925
54471,927
54521,928
54572,928
54623,930
54673,929
54724,931
54774,931
54824,925
54876,926
54926,925
54976,922
55027,924
55077,924
55128,920
55179,917
55229,918
55279,917
55330,915
55380,916
55431,915
55482,916
55532,915
55583,916
55633,917
55684,917
55735,918
55785,919
55835,918
55886,919
55937,918
55987,919
56038,922
56088,921
56138,922
56189,922
56240,924
56290,924
56341,922
56391,921
56442,920
56493,921
56543,920
56594,921
56644,923
56694,921
56745,923
56796,922
56846,919
56897,918
56947,917
56997,917
57049,917
57099,916
57149,919
57200,918
57250,918
57302,919
57352,919
57402,919
57453,918
57503,920
57553,920
57605,923
57655,924
57705,924
57756,925
57806,921
57857,923
57908,926
57958,942
58008,941
58059,934
58109,944
58161,979
58211,1009
58261,1000
58312,982
58362,972
58413,970
58464,947
58514,969
58564,995
58615,1023
58665,949
58717,1013
58767,1023
58817,1023
58868,1023
58918,1023
58970,1023
59020,1023
59070,1023
59121,1023
59171,1023
59223,1023
59273,1023
59323,1023
59374,1023
59424,1023
59475,1023
59526,1023
59576,1023
59627,1023
59677,1023
59728,1023
59779,1023
59829,1023
59880,1023
59930,1023
59981,1023
60032,1023
60082,1023
60133,1023
60183,1023
60234,1020
60284,1012
60335,968
60386,946
60436,947
60486,951
60537,954
60588,956
60638,958
60689,961
60739,958
60790,959
60840,959
60891,958
60942,959
60992,959
61042,960
61093,959
61144,961
61194,963
61245,964
61295,963
61345,961
61396,958
61447,956
61497,953
61548,952
61598,953
61649,948
61700,946
61750,945
61801,945
61851,945
61901,945
61953,946
62003,945
62053,946
62104,947
62154,950
62204,950
62256,951
62306,954
62356,953
62407,954
62457,954
62509,954
62559,954
62609,954
62660,955
62710,954
62760,956
62812,955
62862,956
62912,954
62963,953
63013,951
63064,945
63115,943
63165,941
63215,938
63266,936
63316,936
63368,935
63418,936
63468,938
63519,938
63569,938
63620,937
63671,939
63721,942
63771,944
63822,949
63873,950
63923,952
63974,956
64024,959
64074,958
64125,969
64176,1005
64227,1023
64277,1023
64327,1023
64378,1002
64429,956
64480,953
64530,950
64580,949
64631,947
64681,944
64732,942
64783,938
64833,934
64883,935
64934,935
64985,939
65035,936
65086,928
65136,928
65186,924
65238,927
65288,940
65339,946
65389,952
65439,948
65490,944
65541,946
65591,937
65642,923
65692,921
65742,940
65794,944
65844,945
65894,936
65945,929
65995,917
66045,919
66097,916
66147,916
66198,927
66248,917
66298,911
66350,915
66400,926
66450,920
66501,911
66551,908
66601,913
66653,908
66703,905
66753,904
66804,919
66854,928
66905,914
66956,915
67006,929
67057,917
67107,921
67158,950
67209,988
67259,1023
67309,1023
67360,1023
67410,1023
67462,1023
67512,1023
67562,1023
67613,1023
67663,1023
67715,1023
67765,1023
67815,1018
67866,1006
67916,988
67968,972
68018,959
68068,951
68119,951
68169,950
68219,952
68271,950
68321,954
68371,961
68422,962
68472,960
68523,957
68574,960
68624,959
68674,960
68725,957
68775,958
68827,959
68877,960
68927,959
68978,958
69028,957
69079,955
69130,954
69180,953
69230,951
69281,948
69331,945
69382,945
69433,943
69483,945
69533,942
69584,944
69635,943
69686,941
69736,941
69786,942
69837,944
69888,945
69938,948
69989,953
70039,951
70089,953
70140,959
70191,959
70241,956
70292,957
70342,967
70392,992
70444,1023
70494,1023
70545,1008
70595,942
70645,931
70696,924
70747,924
70797,924
70848,927
70898,923
70949,921
71000,918
71050,919
71101,918
71151,921
71201,924
71252,922
71303,922
71353,926
71404,930
71454,919
71504,925
71556,931
71606,930
71656,923
71707,931
71757,925
71809,921
71859,916
71909,914
71960,914
72010,915
72060,909
72112,909
72162,906
72212,895
72263,907
72313,911
72364,913
72415,915
72465,916
72515,917
72566,918
72616,912
72668,911
72718,910
72768,911
72819,907
72869,904
72920,908
72971,906
73021,906
73071,912
73122,907
73172,908
73223,912
73274,913
73324,911
73374,910
73425,908
73476,911
73527,908
73577,911
73627,906
73678,906
73729,900
73779,902
73830,907
73880,911
73930,914
73981,896
74032,882
74082,898
74133,894
74183,888
74233,882
74285,882
74335,883
74386,883
74436,867
74486,872
74537,869
74588,879
74638,877
74689,874
74739,882
74789,880
74841,882
74891,883
74941,886
74992,881
75042,880
75092,883
75144,886
75194,880
75245,886
75295,874
75345,885
75397,878
75447,883
75497,881
75548,880
75598,875
75649,877
75700,879
75750,874
75800,878
75851,875
75901,879
75952,876
76003,873
76053,880
76104,872
76154,879
76205,879
76256,873
76306,876
76356,883
76407,878
76457,871
76508,872
76559,881
76609,871
76659,871
76710,879
76761,879
76811,874
76862,881
76912,876
76963,885
77014,880
77064,875
77115,880
77165,874
77215,881
77266,877
77317,875
77367,874
77418,882
77468,877
77518,878
77570,874
77620,877
77670,874
77721,884
77771,877
77822,876
77873,876
77923,869
77974,878
78024,874
78074,877
78126,873
78176,881
78226,869
78277,870
78327,875
78377,878
78429,872
78479,876
78529,880
78580,872
78630,870
78682,878
78732,869
78782,878
78833,874
78883,875
78934,870
78985,871
79035,876
79085,879
79136,874
79186,881
79237,874
79288,882
79338,874
79388,876
79439,872
79490,876
79541,868
79591,879
79641,872
79692,868
79742,877
79793,873
79844,878
79894,870
79944,873
79995,871
80046,873
80096,878
80147,876
80197,875
80247,876
80299,880
80349,867
80400,872
80450,878
80500,869
80551,869
80602,874
80652,872
80703,874
80753,868
80803,868
80855,869
80905,873
80955,875
81006,870
81056,873
81106,869
81158,862
81208,863
81259,864
81309,872
81359,866
81411,875
81461,871
81511,876
81562,898
81612,895
81662,896
81714,898
81764,890
81814,892
81865,887
81915,891
81966,883
82017,891
82067,888
82118,892
82168,892
82219,890
82270,889
82320,883
82370,890
82421,884
82471,890
82522,882
82573,881
82623,883
82673,888
82724,887
82775,881
82825,881
82876,887
82926,887
82977,882
83027,884
83078,883
83129,886
83179,885
83229,879
83280,883
83331,880
83381,879
83432,879
83482,882
83532,883
83584,882
83634,879
83684,877
83735,883
83785,880
83836,879
83887,883
83937,878
83988,883
84038,873
84088,883
84140,882
84190,880
84240,881
84291,883
84341,884
84391,880
84443,882
84493,878
84543,882
84594,884
84644,879
84696,878
84746,881
84796,875
84847,871
84897,879
84947,879
84999,882
85049,880
85099,880
85150,881
85200,881
85251,883
85302,878
85352,877
85402,878
85453,882
85504,880
85555,879
85605,882
85655,872
85706,881
85756,877
85807,879
85858,880
85908,876
85958,878
86009,877
86060,882
86110,882
86161,881
86211,878
86261,881
86312,883
86363,879
86414,875
86464,871
86514,872
86565,880
86616,877
86666,879
86717,880
86767,875
86817,879
86868,876
86919,878
86969,883
87020,880
87070,876
87120,878
87172,883
87222,875
87273,872
87323,878
87373,877
87425,885
87475,881
87525,879
87576,880
87626,877
87676,881
87728,877
87778,879
87828,881
87879,880
87929,878
87980,874
88031,881
88081,881
88132,880
88182,880
88232,874
88284,883
88334,879
88384,879
88435,878
88485,875
88536,872
88587,875
88637,880
88687,882
88738,880
88788,873
88839,873
88890,880
88940,873
88991,871
89041,875
89092,870
89143,878
89193,872
89243,870
89294,874
89345,868
89395,874
89446,872
89496,875
89546,881
89597,876
89648,874
89698,874
89749,879
89799,877
89850,875
89901,880
89951,877
90002,881
90052,876
90102,873
90153,871
90204,873
90254,875
90305,875
90355,875
90405,881
90457,873
90507,872
90557,874
90608,879
90658,878
90710,869
90760,876
90810,873
90861,880
90911,873
90961,871
91013,876
91063,872
91113,876
91164,874
91214,877
91265,880
91316,876
91366,872
91416,871
91467,878
91517,873
91569,870
91619,875
91669,870
91720,878
91770,867
91821,874
91872,870
91922,879
91972,871
92023,875
92073,870
92124,871
92175,866
92225,881
92275,874
92326,869
92377,865
92428,874
92478,868
92528,875
92579,867
92630,866
92680,870
92731,863
92781,873
92831,863
92882,872
92933,866
92983,868
93034,867
93084,871
93134,869
93186,870
93236,866
93287,873
93337,867
93387,873
93438,863
93489,915
93539,908
93590,872
93640,922
93690,899
93742,907
93792,879
93842,868
93893,879
93943,868
93995,870
94045,864
94095,875
94146,866
94196,909
94246,913
94298,916
94348,917
94398,920
94449,918
94499,918
94550,920
94601,923
94651,923
94701,923
94752,922
94802,923
94854,924
94904,925
94954,924
95005,920
95055,927
95106,921
95157,922
95207,906
95257,911
95308,911
95358,906
95409,901
95460,898
95510,875
95560,862
95611,875
95662,870
95713,867
95763,866
95813,902
95864,902
95915,894
95965,890
96016,880
96066,883
96116,884
96167,883
96218,879
96268,875
96319,881
96369,882
96419,887
96471,883
96521,880
96572,880
96622,870
96672,878
96723,876
96774,871
96824,869
96875,867
96925,874
96975,860
97027,862
97077,858
97127,860
97178,860
97228,862
97278,853
97330,855
97380,854
97431,856
97481,875
97531,876
97583,871
97633,872
97683,875
97734,871
97784,880
97835,862
97886,863
97936,866
97986,861
98037,861
98087,858
98138,869
98189,875
98239,874
98290,877
98340,875
98391,876
98442,876
98492,877
98542,883
98593,879
98643,884
98694,869
98745,874
98795,869
98845,873
98896,881
98947,879
98997,878
99048,874
99098,878
99149,872
99200,876
99250,881
99301,876
99351,877
99401,878
99452,876
99503,874
99553,875
99604,879
99654,874
99704,869
99756,875
99806,882
99856,879
99907,882
99957,873
100008,875
100059,875
100109,875
100160,884
100210,879
100261,873
100312,877
100362,878
100413,875
100463,873
100513,875
100564,879
100615,872
100666,871
100716,868
100766,877
100817,872
100868,864
100919,885
100969,880
101019,866
101070,874
101121,871
101172,880
101222,880
101272,871
101323,872
101373,878
101425,874
101475,869
101525,872
101576,878
101626,875
101678,869
101728,878
101778,869
101829,869
101879,865
101931,874
101981,871
102031,872
102082,876
102132,870
102182,876
102234,879
102284,875
102335,884
102385,876
102435,879
102487,877
102537,875
102588,878
102638,875
102688,879
102739,875
102790,877
102841,879
102891,870
102941,877
102992,875
103043,868
103094,876
103144,873
103194,872
103245,877
103296,871
103347,872
103397,863
103447,864
103498,868
103548,867
103600,867
103650,875
103700,867
103751,873
103801,879
103853,878
103903,878
103953,874
104004,866
104054,865
104104,870
104156,874
104206,868
104257,863
104307,863
104357,868
104409,870
104459,869
104510,873
104560,880
104610,869
104662,877
104712,864
104763,872
104813,874
104863,869
104914,867
104965,864
105016,863
105066,872
105116,873
105167,874
105218,876
105269,874
105319,876
105369,871
105420,877
105470,874
105522,880
105572,879
105622,878
105673,878
105723,874
105775,875
105825,878
105875,872
105926,873
105976,875
106027,863
106078,872
106128,876
106179,881
106229,870
106279,865
106331,872
106381,874
106432,871
106482,869
106532,876
106584,876
106634,878
106685,875
106735,873
106785,874
106836,875
106887,869
106938,867
106988,873
107038,876
107089,877
107140,876
107191,872
107241,871
107291,881
107342,875
107393,877
107444,872
107494,877
107544,872
107595,873
107645,872
107696,878
107747,881
107797,880
107848,879
107898,869
107949,874
108000,875
108050,875
108101,877
108151,878
108201,878
108253,873
108303,874
108354,876
108404,876
108454,877
108506,876
108556,880
108607,878
108657,864
108707,868
108759,875
108809,875
108860,873
108910,871
108960,879
109011,874
109062,878
109113,879
109163,868
109213,879
109264,878
109315,878
109366,872
109416,871
109466,866
109517,879
109568,879
109618,883
109669,876
109719,870
109770,878
109820,889
109871,874
109922,878
109972,876
110023,877
110073,880
110124,876
110175,875
110225,877
110276,880
110326,876
110376,873
110428,877
110478,877
110529,876
110579,874
110629,877
110681,878
110731,873
110782,875
110832,872
110882,871
110934,876
110984,874
111035,864
111085,862
111135,873
111186,875
111237,877
111287,872
111338,869
111388,874
111439,876
111490,874
111540,865
111591,869
111641,869
111692,872
111742,871
111793,872
111844,866
111894,872
111945,862
111995,860
112046,871
112097,867
112147,867
112198,872
112248,860
112299,868
112350,863
112400,868
112451,869
112501,860
112551,862
112603,867
112653,865
112704,864
112754,866
112804,866
112856,866
112906,866
112957,879
113007,867
113057,868
113108,863
113159,866
113209,859
113260,857
113310,864
113361,863
113412,870
113462,866
113513,863
113563,860
113614,869
113665,869
113715,864
113766,861
113816,874
113867,870
113917,865
113968,874
114019,877
114069,875
114120,875
114170,872
114221,862
114272,869
114322,869
114373,859
114423,871
114473,868
114525,870
114575,863
114626,858
114676,860
114726,862
114778,867
114828,863
114878,865
114929,864
114979,865
115031,858
115081,867
115131,865
115182,869
115232,866
115283,864
115334,860
115384,869
115435,861
115485,867
115536,865
115587,864
115637,867
115688,859
115738,865
115789,867
115840,864
115890,869
115941,865
115991,865
116042,861
116092,863
116143,871
116194,861
116244,860
116295,865
116345,868
116396,864
116447,862
116497,864
116548,866
116598,866
116648,867
116700,867
116750,871
116800,867
116851,860
116901,858
116953,873
117003,873
117053,861
117104,861
117154,869
117206,867
117256,866
117306,859
117357,859
117407,870
117458,863
117509,861
117559,868
117610,854
117660,870
117711,864
117762,866
117812,855
117863,863
117913,864
117964,857
118014,861
118065,868
118116,855
118166,861
118217,866
118267,862
118318,856
118369,860
118419,858
118470,855
118520,882
118571,891
118622,888
118672,893
118722,894
118773,897
118823,894
118875,893
118925,888
118975,892
119026,889
119076,874
119128,868
119178,874
119228,869
119279,875
119329,875
119380,863
119431,865
119481,872
119532,878
119582,870
119633,874
119684,880
119734,870
119785,866
119835,864
119886,863
119937,874
119987,875
120038,876
120088,877
120139,866
120189,862
120240,864
120291,879
120341,875
120391,876
120442,873
120493,859
120544,857
120594,873
120644,865
120695,867
120745,871
120797,861
120847,860
120897,868
120948,863
120998,854
121050,861
121100,860
121150,866
121201,861
121251,860
121303,862
121353,863
121403,864
121454,863
121504,866
121555,862
121606,864
121656,869
121707,871
121757,873
121808,871
121859,870
121909,860
121960,854
122010,858
122061,856
122112,854
122162,865
122213,868
122263,866
122313,860
122364,859
122415,863
122466,864
122516,869
122566,861
122617,858
122668,862
122719,858
122769,860
122819,863
122870,866
122920,860
122972,863
123022,863
123072,866
123123,868
123173,852
123225,861
123275,863
123325,854
123376,854
123426,854
123478,856
123528,854
123578,869
123629,866
123679,865
123730,855
123781,863
123831,860
123882,861
123932,856
123982,858
124034,867
124084,865
124135,862
124185,858
124235,861
124286,861
124337,862
124388,857
124438,860
124488,859
124539,860
124590,854
124641,852
124691,850
124741,855
124792,854
124843,856
124894,856
124944,851
124994,850
125045,848
125095,854
125147,852
125197,849
125247,855
125298,859
125348,858
125400,853
125450,858
125500,857
125551,856
125601,856
125651,851
125703,860
125753,856
125804,855
125854,854
125904,868
125956,855
126006,856
126057,865
126107,863
126157,854
126209,854
126259,863
126310,855
126360,854
126410,851
126461,855
126512,856
126563,853
126613,852
126663,852
126714,854
126765,852
126816,852
126866,853
126916,855
126967,853
127017,855
127069,855
127119,854
127169,857
127220,855
127270,860
127322,852
127372,857
127422,850
127473,852
127523,855
127574,851
127625,856
127675,848
127726,848
127776,851
127826,850
127878,847
127928,846
127979,846
128029,846
128079,850
128131,848
128181,846
128232,848
128282,845
128332,845
128384,846
128434,844
128485,845
128535,844
128585,857
128636,855
128687,855
128738,854
128788,855
128838,859
128889,860
128940,863
128991,861
129041,858
129091,854
129142,856
129192,861
129244,864
129294,864
129344,861
129395,860
129445,862
129496,854
129547,864
129597,859
129648,861
129698,860
129748,850
129800,864
129850,856
129901,854
129951,854
130001,854
130053,860
130103,855
130154,857
130204,862
130254,871
130306,862
130356,861
130407,860
130457,861
130507,855
130558,852
130609,852
130660,857
130710,852
130760,865
130811,866
130862,865
130913,863
130963,863
131013,856
131064,859
131115,857
131165,858
131216,857
131266,861
131317,860
131367,857
131418,860
131469,858
131519,854
131570,861
131620,863
131671,859
131722,858
131772,865
131823,865
131873,855
131923,856
131975,857
132025,855
132076,854
132126,860
132176,852
132228,866
132278,861
132329,864
132379,864
132429,852
132481,858
132531,856
132582,857
132632,858
132682,855
132733,858
132784,861
132834,863
132885,862
132935,854
132986,857
133037,858
133087,858
133138,859
133188,855
133239,867
133289,869
133340,855
133391,856
133441,867
133492,859
133542,859
133593,867
133644,863
133694,864
133745,863
133795,862
133846,855
133897,855
133947,857
133998,860
134048,855
134098,861
134150,859
134200,862
134251,860
134301,863
134351,856
134403,856
134453,858
134504,861
134554,861
134604,855
134656,855
134706,855
134756,865
134807,864
134857,856
134908,857
134959,856
135009,862
135060,857
135110,860
135161,862
135212,862
135262,856
135313,855
135363,863
135414,856
135464,857
135515,861
135566,864
135616,862
135667,860
135717,864
135768,861
135819,861
135869,861
135920,867
135970,867
136020,860
136072,860
136122,858
136173,861
136223,859
136273,854
136325,855
136375,852
136426,863
136476,862
136526,853
136578,856
136628,861
136678,855
136729,854
136779,863
136830,855
136881,858
136931,858
136982,861
137032,855
137083,858
137134,856
137184,860
137235,867
137285,855
137336,869
137387,866
137437,855
137488,857
137538,855
137589,856
137639,858
137690,865
137741,864
137791,863
137842,862
137892,861
137943,856
137994,858
138044,858
138094,862
138145,860
138195,855
138247,858
138297,857
138347,853
138398,864
138448,860
138500,857
138550,856
138600,867
138651,867
138701,857
138753,854
138803,854
138853,866
138904,861
138954,864
139005,864
139056,862
139106,854
139157,854
139207,853
139258,853
139309,852
139359,863
139410,857
139460,853
139511,854
139561,852
139612,860
139663,858
139713,855
139764,855
139814,855
139865,869
139916,868
139966,854
140016,856
140067,859
140118,852
140169,861
140219,864
140269,856
140320,855
140370,863
140422,857
140472,857
140522,856
140573,853
140623,860
140675,857
140725,854
140775,860
140826,862
140876,859
140928,860
140978,858
141028,852
141079,852
141129,853
141180,856
141231,855
141281,865
141332,865
141382,868
141433,864
141484,864
141534,859
141585,857
141635,856
141685,866
141736,866
141787,858
141838,861
141888,857
141938,863
141989,865
142040,856
142091,852
142141,854
142191,860
142242,862
142292,855
142344,860
142394,861
142444,858
142495,858
142545,859
142597,859
142647,860
142697,860
142748,867
142798,865
142850,865
142900,861
142950,853
143001,852
143051,854
143102,859
143153,857
143203,865
143254,862
143304,863
143355,855
143406,857
143456,859
143507,859
143557,858
143607,857
143659,854
143709,860
143760,856
143810,857
143860,867
143911,867
143962,862
144013,855
144063,857
144113,863
144164,867
144215,858
144266,854
144316,853
144366,861
144417,861
144467,860
144519,860
144569,852
144619,855
144670,850
144720,848
144772,855
144822,857
144872,853
144923,849
144973,849
145025,854
145075,854
145125,863
145176,860
145226,861
145276,852
145328,848
145378,865
145429,864
145479,863
145529,852
145581,852
145631,861
145682,854
145732,855
145782,859
145833,861
145884,854
145935,852
145985,853
146035,855
146086,855
146137,852
146188,860
146238,851
146288,859
146339,858
146390,855
146441,852
146491,852
146541,858
146592,856
146642,858
146694,859
146744,851
146794,865
146845,862
146895,863
146947,861
146997,864
147047,858
147098,851
147148,854
147200,852
147250,851
147300,857
147351,859
147401,855
147451,850
147503,856
147553,858
147604,851
147654,852
147704,854
147756,855
147806,854
147857,857
147907,858
147957,853
148008,856
148059,849
148110,850
148160,851
148210,855
148261,853
148312,855
148363,854
148413,853
148463,858
148514,863
148564,862
148616,862
148666,854
148716,854
148767,854
148817,853
148869,855
148919,852
148969,859
149020,863
149070,858
149121,855
149172,853
149222,854
149273,865
149323,863
149373,852
149425,852
149475,863
149526,857
149576,856
149626,862
149678,862
149728,857
149779,853
149829,851
149879,855
149931,853
149981,854
150032,862
150082,857
150132,852
150183,851
150234,858
150285,856
150335,858
150385,857
150436,857
150487,857
150538,857
150588,851
150638,853
150689,851
150739,852
150791,852
150841,850
150891,860
150942,859
150992,862
151044,852
151094,853
151144,850
151195,851
151245,849
151296,853
151347,850
151397,853
151448,853
151498,857
151548,855
151600,857
151650,857
151701,857
151751,850
151801,856
151853,858
151903,853
151954,852
152004,852
152054,865
152105,865
152156,859
152207,855
152257,856
152307,863
152358,863
152409,863
152460,861
152510,861
152560,853
152611,853
152662,852
152713,855
152763,856
152813,863
152864,864
152914,863
152966,860
153016,858
153066,860
153117,858
153167,853
153218,856
153269,859
153319,852
153370,864
153420,866
153470,856
153522,853
153572,853
153623,863
153673,865
153723,861
153775,858
153825,864
153876,874
153926,867
153976,857
154028,857
154078,864
154129,856
154179,855
154229,862
154280,921
154331,931
154382,934
154432,930
154482,930
154533,914
154584,913
154635,910
154685,908
154735,908
154786,909
154836,906
154888,907
154938,905
154988,903
155039,903
155089,903
155140,904
155191,902
155241,901
155292,901
155342,900
155393,900
155444,897
155494,898
155545,897
155595,898
155645,897
155697,897
155747,897
155798,895
155848,895
155898,895
155950,893
156000,893
156051,893
156101,893
156151,894
156203,893
156253,892
156304,892
156354,892
156404,892
156455,891
156506,891
156557,891
156607,890
156657,891
156708,891
156759,890
156810,890
156860,887
156910,887
156961,881
157011,885
157063,882
157113,883
157163,860
157214,884
157264,862
157315,884
157366,884
157416,886
157467,868
157517,882
157568,860
157619,884
157669,886
157720,888
157770,890
157820,892
157872,891
157922,894
157973,893
158023,893
158073,894
158125,885
158175,889
158226,879
158276,876
158326,881
158377,888
158428,884
158479,890
158529,892
158579,890
158630,874
158681,891
158732,877
158782,874
158832,880
158883,862
158934,891
158985,892
159035,884
159085,893
159136,894
159186,895
159237,895
159288,892
159338,895
159389,900
159439,898
159490,898
159541,894
159591,896
159642,895
159692,897
159742,898
159794,895
159844,897
159895,901
159945,901
159995,898
160047,898
160097,903
160148,900
160198,900
160248,903
160300,898
160350,897
160401,896
160451,896
160501,897
160552,897
160603,897
160654,894
160704,893
160754,893
160805,892
160856,893
160907,892
160957,892
161007,893
161058,893
161108,894
161159,893
161210,892
161260,893
161311,892
161361,892
161412,893
161463,890
161513,891
161564,890
161614,892
161665,892
161716,890
161766,891
161817,891
161867,891
161917,893
161969,892
162019,891
162070,892
162120,892
162170,891
162222,891
162272,891
162323,892
162373,893
162423,891
162475,891
162525,892
162576,891
162626,892
162676,891
162727,891
162778,891
162829,892
162879,892
162929,899
162980,900
163031,905
163081,910
163132,953
163182,870
163233,1023
163283,1023
163335,1023
163385,894
163435,1023
163486,938
163536,928
163588,944
163638,978
163688,993
163739,1005
163789,1007
163841,1006
163891,1009
163942,1008
163992,1007
164043,1007
164093,999
164144,982
164195,995
164245,992
164296,994
164346,1001
164397,1002
164448,1000
164498,997
164549,993
164599,993
164649,997
164701,996
164751,995
164802,992
164852,992
164902,991
164954,986
165004,988
165055,987
165105,989
165155,988
165207,985
165257,983
165308,982
165358,986
165408,983
165459,981
165510,979
165561,981
165611,982
165661,979
165712,978
165763,975
165814,975
165864,975
165914,975
165965,972
166016,971
166066,972
166117,972
166167,975
166218,973
166268,971
166319,970
166370,969
166420,968
166471,970
166521,968
166572,968
166623,967
166673,966
166724,967
166774,966
166824,966
166876,965
166926,964
166977,964
167027,964
167077,963
167129,962
167179,960
167230,961
167280,959
167330,958
167382,959
167432,959
167483,960
167533,957
167583,958
167634,958
167685,955
167736,958
167786,955
167836,956
167887,954
167938,953
167989,953
168039,953
168089,952
168140,952
168190,951
168241,951
168292,951
168342,948
168393,950
168443,949
168494,948
168545,948
168595,947
168646,946
168696,946
168747,947
168798,945
168848,945
168899,945
168949,943
168999,943
169051,943
169101,942
169152,943
169202,941
169252,941
169304,941
169354,940
169405,940
169455,940
169505,939
169556,939
169607,937
169658,937
169708,937
169758,937
169809,936
169860,936
169911,936
169961,936
170011,935
170062,935
170113,934
170163,936
170214,936
170264,934
170315,933
170365,932
170416,932
170467,931
170517,928
170568,929
170618,929
170669,928
170720,927
170770,927
170821,927
170871,926
170921,925
170973,924
171023,925
171074,925
171124,924
171174,923
171226,923
171276,922
171327,923
171377,932
171427,945
171479,959
171529,964
171580,964
171630,959
171680,956
171731,957
171782,962
171833,963
171883,957
171933,949
171984,953
172035,964
172085,975
172136,984
172186,993
172237,1008
172288,1018
172339,1019
172389,1020
172439,1017
172490,1012
172540,1007
172592,1004
172642,1000
172693,990
172743,983
172793,978
172845,974
172895,973
172946,966
172996,962
173046,959
173097,958
173148,959
173199,959
173249,955
173299,953
173350,954
173401,958
173452,958
173502,962
173552,962
173603,966
173654,982
173705,1014
173755,1023
173805,1023
173856,1023
173906,1023
173958,1023
174008,1023
174059,1023
174109,1023
174160,1023
174211,1023
174262,1023
174312,963
174362,952
174413,953
174464,954
174515,956
174565,962
174615,960
174666,951
174716,952
174768,954
174818,956
174868,960
174919,958
174969,956
175020,954
175071,953
175121,951
175172,951
175222,948
175272,949
175324,948
175374,949
175425,950
175475,950
175525,949
175577,951
175627,956
175678,953
175728,954
175778,956
175830,956
175880,956
175931,955
175981,956
176031,955
176082,957
176133,953
176184,953
176234,955
176284,953
176335,952
176386,949
176437,948
176487,943
176537,944
176588,942
176638,941
176690,940
176740,938
176790,937
176841,939
176891,939
176943,940
176993,943
177043,942
177094,942
177144,943
177196,945
177246,947
177296,946
177347,946
177397,946
177447,946
177499,945
177549,945
177600,945
177650,945
177700,945
177752,944
177802,942
177853,941
177903,942
177953,938
178004,937
178055,936
178106,933
178156,933
178206,935
178257,934
178308,936
178359,939
178409,936
178459,938
178510,938
178561,941
178612,943
178662,945
178712,945
178763,945
178813,945
178865,945
178915,944
178965,944
179016,943
179066,944
179118,943
179168,945
179218,943
179269,941
179319,940
179371,936
179421,935
179471,935
179522,935
179572,934
179622,935
179674,934
179724,935
179775,936
179825,936
179875,936
179927,938
179977,940
180028,941
180078,944
180128,944
180179,945
180230,944
180281,945
180331,944
180381,943
180432,943
180483,942
180534,946
180584,943
180634,940
180685,941
180736,941
180787,940
180837,938
180887,937
180938,936
180988,936
181040,937
181090,933
181140,934
181191,936
181241,936
181293,937
181343,938
181393,938
181444,940
181494,942
181544,944
181596,944
181646,944
181697,945
181747,944
181797,943
181849,944
181899,946
181950,944
182000,945
182050,945
182102,944
182152,943
182203,942
182253,942
182303,938
182354,939
182405,936
182456,935
182506,936
182556,936
182607,936
182658,936
182709,937
182759,937
182809,940
182860,938
182910,939
182962,942
183012,944
183062,946
183113,946
183163,946
183215,946
183265,947
183315,944
183366,944
183416,944
183468,944
183518,945
183568,945
183619,943
183669,941
183719,941
183771,937
183821,937
183872,935
183922,934
183972,935
184024,934
184074,935
184125,937
184175,940
184225,936
184276,938
184327,940
184378,941
184428,943
184478,944
184529,946
184580,944
184631,946
184681,944
184731,943
184782,944
184833,944
184884,944
184934,945
184984,946
185035,943
185085,940
185137,940
185187,938
185237,938
185288,936
185338,937
185390,936
185440,933
185490,935
185541,939
185591,938
185641,938
185693,939
185743,939
185794,941
185844,941
185894,945
185946,946
185996,948
186047,945
186097,946
186147,945
186199,945
186249,945
186300,943
186350,946
186400,946
186451,947
186502,944
186553,942
186603,941
186653,938
186704,938
186755,936
186806,936
186856,936
186906,935
186957,935
187008,937
187059,937
187109,937
187159,938
187210,940
187260,941
187312,941
187362,944
187412,945
187463,945
187513,946
187564,946
187615,946
187665,945
187716,946
187766,945
187816,946
187868,946
187918,944
187969,943
188019,940
188069,939
188121,938
188171,937
188222,935
188272,934
188322,935
188374,935
188424,936
188475,937
188525,938
188575,937
188626,939
188677,943
188728,946
188778,947
188828,947
188879,948
188930,948
188981,947
189031,946
189081,945
189132,945
189182,945
189234,946
189284,946
189334,945
189385,943
189435,943
189487,940
189537,940
189587,937
189638,936
189688,936
189739,935
189790,936
189840,936
189891,938
189941,939
189991,939
190043,939
190093,941
190144,942
190194,943
190244,945
190296,946
190346,946
190397,946
190447,946
190497,945
190548,945
190599,946
190650,946
190700,946
190750,945
190801,947
190852,943
190903,941
190953,940
191003,939
191054,938
191105,936
191156,937
191206,936
191256,935
191307,939
191357,938
191409,938
191459,938
191509,940
191560,941
191610,943
191662,945
191712,946
191762,946
191813,946
191863,947
191915,946
191965,946
192015,945
192066,944
192116,945
192167,947
192218,945
192268,944
192319,944
192369,944
192420,944
192471,942
192521,941
192572,940
192622,939
192672,938
192723,938
192774,937
192825,937
192875,939
192925,938
192976,941
193027,942
193078,945
193128,945
193178,946
193229,945
193280,946
193331,947
193381,945
193431,947
193482,945
193532,945
193584,946
193634,946
193684,945
193735,943
193785,942
193837,940
193887,939
193937,938
193988,937
194038,936
194089,936
194140,936
194190,937
194241,938
194291,938
194342,939
194393,941
194443,943
194494,943
194544,945
194594,945
194646,945
194696,947
194747,946
194797,947
194847,945
194898,946
194949,944
195000,945
195050,946
195100,945
195151,944
195202,943
195253,942
195303,939
195353,940
195404,937
195454,936
195506,937
195556,937
195606,937
195657,938
195707,939
195759,939
195809,942
195859,941
195910,943
195960,944
196012,946
196062,946
196112,947
196163,948
196213,946
196264,948
196315,946
196365,946
196416,946
196466,947
196516,946
196568,945
196618,943
196669,941
196719,940
196769,939
196820,938
196871,937
196922,936
196972,937
197022,935
197073,938
197124,938
197175,941
197225,939
197275,941
197326,942
197377,944
197428,946
197478,947
197528,946
197579,947
197629,947
197681,945
197731,946
197781,945
197832,946
197882,946
197934,946
197984,944
198034,943
198085,944
198135,940
198187,939
198237,937
198287,936
198338,936
198388,936
198439,934
198490,938
198540,941
198591,938
198641,938
198691,939
198743,940
198793,943
198844,944
198894,946
198944,946
198995,950
199046,947
199097,946
199147,946
199197,946
199248,946
199299,947
199350,947
199400,946
199450,943
199501,943
199552,941
199603,940
199653,940
199703,940
199754,938
199804,937
199856,936
199906,940
199956,938
200007,938
200057,938
200109,939
200159,943
200209,943
200260,945
200310,946
200361,949
200412,946
200462,948
200513,947
200563,948
200614,947
200665,947
200715,948
200766,948
200816,949
200866,945
200918,943
200968,942
201019,941
201069,940
201119,938
201170,936
201221,937
201272,936
201322,938
201372,938
201423,939
201474,939
201525,938
201575,941
201625,942
201676,945
201726,946
201778,946
201828,947
201878,946
201929,945
201979,945
202031,945
202081,944
202131,946
202182,947
202232,948
202284,946
202334,944
202384,942
202435,940
202485,939
202536,938
202587,937
202637,938
202688,937
202738,938
202789,938
202840,939
202890,940
202941,940
202991,941
203041,944
203092,945
203143,948
203194,947
203244,947
203294,948
203345,947
203396,947
203447,947
203497,946
203547,946
203598,947
203649,946
203700,945
203750,943
203800,942
203851,940
203901,940
203953,938
204003,937
204053,936
204104,936
204154,938
204206,939
204256,940
204306,940
204357,941
204407,942
204459,944
204509,946
204559,945
204610,948
204660,947
204711,948
204762,947
204812,947
204863,945
204913,946
204964,946
205015,946
205065,945
205116,943
205166,942
205217,940
205267,939
205318,938
205369,938
205419,937
205469,937
205520,937
205571,938
205622,940
205672,939
205722,943
205773,941
205824,943
205875,945
205925,946
205975,947
206026,947
206076,949
206128,947
206178,948
206228,947
206279,945
206329,946
206381,947
206431,947
206481,946
206532,945
206582,943
206633,944
206684,941
206734,940
206785,938
206835,937
206886,937
206937,937
206987,938
207038,939
207088,941
207139,940
207190,941
207240,943
207291,945
207341,947
207391,948
207442,948
207493,948
207544,949
207594,947
207644,948
207695,947
207746,946
207797,947
207847,946
207897,947
207948,945
207998,944
208050,941
208100,939
208150,938
208201,937
208251,936
208303,936
208353,939
208403,938
208454,940
208504,938
208556,940
208606,940
208656,943
208707,945
208757,948
208808,948
208859,948
208909,948
208960,948
209010,947
209061,947
209112,947
209162,947
209213,947
209263,947
209314,944
209364,947
209415,943
209466,941
209516,940
209566,939
209617,938
209668,938
209719,940
209769,938
209819,939
209870,939
209921,940
209972,941
210022,942
210072,943
210123,945
210173,946
210225,947
210275,950
210325,948
210376,948
210426,946
210478,946
210528,946
210578,946
210629,947
210679,948
210731,949
210781,944
210831,942
210882,940
210932,940
210983,940
211034,937
211084,936
211135,936
211185,937
211236,939
211287,940
211337,940
211388,941
211438,943
211488,944
211539,945
211590,946
211641,949
211691,947
211741,948
211792,948
211843,947
211894,946
211944,945
211994,949
212045,948
212096,949
212147,944
212197,943
212247,942
212298,939
212348,939
212400,939
212450,938
212500,937
212551,941
212601,939
212653,940
212703,940
212753,941
212804,942
212854,944
212905,945
212956,946
213006,947
213057,948
213107,949
213158,948
213209,947
213259,947
213310,946
213360,946
213410,947
213462,950
213512,946
213563,946
213613,943
213663,941
213714,940
213765,938
213816,938
213866,938
213916,940
213967,938
214018,939
214069,940
214119,940
214169,941
214220,942
214270,944
214322,946
214372,949
214422,948
214473,948
214523,948
214575,947
214625,947
214675,946
214726,947
214776,946
214828,950
214878,946
214928,945
214979,944
215029,942
215080,941
215131,939
215181,939
215232,937
215282,937
215332,937
215384,939
215434,940
215485,940
215535,941
215585,941
215636,945
215687,946
215738,948
215788,951
215838,951
215889,950
215940,949
215991,951
216041,949
216091,950
216142,948
216193,949
216244,947
216294,947
216344,946
216395,943
216445,942
216497,940
216547,941
216597,938
216648,938
216698,937
216750,937
216800,939
216850,940
216901,940
216951,941
217003,941
217053,943
217103,944
217154,946
217204,946
217254,947
217306,948
217356,950
217407,948
217457,948
217507,947
217559,949
217609,950
217660,948
217710,948
217760,945
217811,944
217862,941
217913,943
217963,939
218013,938
218064,938
218115,937
218166,939
218216,939
218266,939
218317,939
218368,941
218419,942
218469,945
218519,946
218570,948
218620,949
218672,949
218722,948
218772,948
218823,949
218873,946
218925,946
218975,946
219025,947
219076,946
219126,945
219177,944
219228,941
219278,940
219329,938
219379,938
219429,937
219481,937
219531,938
219582,938
219632,941
219682,939
219734,940
219784,941
219835,943
219885,945
219935,948
219986,948
220037,948
220088,951
220138,949
220188,948
220239,948
220290,948
220341,947
220391,947
220441,948
220492,947
220542,945
220594,943
220644,942
220694,940
220745,940
220795,939
220847,938
220897,938
220947,937
220998,941
221048,940
221100,941
221150,941
221200,942
221251,944
221301,945
221351,945
221403,947
221453,949
221504,948
221554,948
221604,947
221656,947
221706,947
221757,947
221807,947
221857,947
221908,948
221959,945
222010,942
222060,941
222110,940
222161,939
222212,938
222263,938
222313,937
222363,941
222414,939
222465,939
222516,939
222566,941
222616,942
222667,944
222717,947
222769,947
222819,947
222869,948
222920,948
222970,948
223022,948
223072,948
223122,947
223173,948
223223,948
223275,947
223325,946
223375,944
223426,942
223476,941
223526,940
223578,939
223628,939
223679,938
223729,940
223779,940
223831,940
223881,940
223932,941
223982,943
224032,944
224083,946
224134,947
224185,947
224235,948
224285,949
224336,948
224387,948
224438,948
224488,947
224538,947
224589,948
224640,947
224691,946
224741,945
224791,943
224842,940
224892,940
224944,939
224994,939
225044,938
225095,937
225145,939
225197,940
225247,940
225297,941
225348,942
225398,943
225449,946
225500,946
225550,947
225601,948
225651,948
225702,947
225753,947
225803,948
225854,947
225904,946
225955,947
226006,947
226056,947
226107,946
226157,944
226207,943
226258,941
226309,939
226360,940
226410,937
226460,937
226511,938
226562,938
226613,940
226663,940
226713,941
226764,942
226814,944
226866,944
226916,947
226966,948
227017,948
227067,949
227119,949
227169,949
227219,948
227270,949
227320,948
227372,949
227422,948
227472,946
227523,945
227573,943
227624,942
227675,941
227725,939
227776,938
227826,938
227877,938
227928,939
227978,940
228029,940
228079,941
228129,942
228180,945
228231,945
228282,948
228332,950
228382,950
228433,951
228484,950
228535,949
228585,948
228635,948
228686,946
228737,945
228788,947
228838,946
228888,944
228939,944
228989,943
229041,940
229091,939
229141,939
229192,937
229242,937
229294,937
229344,940
229394,940
229445,940
229495,940
229547,942
229597,943
229647,945
229698,946
229748,948
229799,947
229850,950
229900,949
229951,947
230001,950
230051,947
230103,947
230153,948
230204,948
230254,946
230304,946
230355,944
230406,941
230457,943
230507,940
230557,939
230608,938
230659,938
230710,938
230760,939
230810,941
230861,940
230912,942
230963,943
231013,944
231063,947
231114,949
231164,948
231216,949
231266,949
231316,948
231367,951
231417,947
231469,948
231519,949
231569,948
231620,949
231670,946
231721,945
231772,943
231822,942
231873,941
231923,940
231974,940
232025,938
232075,938
232126,939
232176,940
232227,941
232278,941
232328,942
232379,943
232429,944
232479,947
232530,948
232581,948
232632,948
232682,949
232732,947
232783,948
232834,948
232885,947
232935,947
232985,948
233036,947
233086,945
233138,944
233188,944
233238,941
233289,939
233339,939
233391,939
233441,939
233491,937
233542,940
233592,940
233644,940
233694,940
233744,942
233795,944
233845,946
233896,948
233947,948
233997,950
234048,949
234098,948
234149,948
234200,948
234250,947
234301,946
234351,948
234402,948
234452,947
234503,945
234554,946
234604,943
234654,941
234705,940
234756,939
234807,938
234857,938
234907,938
234958,940
235009,942
235060,941
235110,941
235160,943
235211,945
235261,947
235313,948
235363,949
235413,949
235464,949
235514,949
235566,949
235616,947
235666,947
235717,948
235767,949
235819,949
235869,946
235919,945
235970,943
236020,942
236071,942
236122,940
236172,939
236223,938
236273,938
236324,939
236375,941
236425,940
236476,940
236526,941
236577,943
236627,945
236678,946
236729,948
236779,949
236830,949
236880,949
236931,947
236982,949
237032,947
237082,947
237133,948
237184,949
237235,947
237285,946
237335,945
237386,943
237436,943
237488,942
237538,940
237588,938
237639,939
237689,938
237741,939
237791,940
237841,940
237892,939
237942,943
237993,944
238044,945
238094,949
238145,948
238195,949
238246,949
238297,949
238347,948
238398,949
238448,949
238499,947
238550,948
238600,948
238651,947
238701,946
238752,944
238802,943
238853,942
238904,941
238954,939
239005,938
239055,938
239106,939
239157,940
239207,940
239258,941
239308,942
239358,944
239410,944
239460,946
239511,948
239561,948
239611,949
239663,950
239713,949
239764,948
239814,948
239864,947
239916,948
239966,948
240017,948
240067,948
240117,946
240168,943
240219,941
240269,941
240320,940
240370,938
240421,938
240472,938
240522,938
240573,939
240623,941
240674,940
240724,942
240775,943
240826,946
240876,946
240927,948
240977,948
241028,948
241079,950
241129,949
241180,949
241230,948
241281,947
241332,948
241382,947
241433,948
241483,947
241533,945
241585,944
241635,942
241686,940
241736,939
241786,938
241838,938
241888,939
241939,937
241989,940
242039,940
242091,942
242141,941
242191,942
242242,945
242292,945
242343,947
242394,948
242444,949
242495,949
242545,950
242596,948
242647,948
242697,949
242748,947
242798,948
242849,948
242899,948
242950,946
243001,944
243051,941
243102,942
243152,940
243203,939
243254,939
243304,938
243355,938
243405,939
243456,941
243507,941
243557,941
243608,942
243658,944
243708,946
243760,948
243810,948
243861,949
243911,951
243961,949
244013,948
244063,948
244114,947
244164,947
244214,948
244265,949
244316,946
244367,947
244417,945
244467,944
244518,942
244569,940
244619,940
244670,939
244720,939
244771,938
244822,940
244872,940
244923,940
244973,940
245024,941
245074,944
245125,945
245176,947
245226,948
245277,950
245327,948
245378,948
245429,949
245479,948
245530,948
245580,948
245630,949
245682,950
245732,950
245783,947
245833,945
245883,944
245935,942
245985,941
246036,940
246086,939
246136,939
246188,941
246238,938
246289,940
246339,941
246389,941
246440,943
246491,944
246542,945
246592,947
246642,948
246693,949
246744,950
246795,949
246845,948
246895,949
246946,947
246996,946
247047,948
247098,951
247148,947
247199,947
247249,945
247300,944
247351,942
247401,941
247452,940
247502,938
247553,939
247604,938
247654,940
247705,941
247755,940
247805,941
247857,942
247907,944
247958,945
248008,946
248058,947
248110,948
248160,948
248211,949
248261,948
248311,948
248363,948
248413,947
248464,948
248514,948
248564,948
248615,947
248666,945
248717,944
248767,942
248817,941
248868,940
248919,939
248969,939
249020,939
249070,939
249121,940
249171,941
249222,942
249273,942
249323,943
249374,945
249424,947
249475,948
249526,948
249576,949
249627,949
249677,949
249728,950
249779,948
249829,947
249880,949
249930,949
249980,949
250032,948
250082,946
250133,945
250183,945
250233,941
250285,940
250335,938
250386,939
250436,939
250486,938
250537,940
250588,941
250639,942
250689,941
250739,941
250790,944
250841,946
250892,946
250942,948
250992,949
251043,948
251094,951
251144,948
251195,947
251245,946
251296,948
251346,948
251397,948
251448,947
251498,945
251549,946
251599,942
251650,941
251701,940
251751,939
251802,938
251852,938
251902,940
251954,941
252004,940
252055,941
252105,942
252155,944
252207,946
252257,947
252308,949
252358,950
252408,949
252460,949
252510,949
252561,949
252611,949
252661,948
252712,948
252763,947
252814,948
252864,947
252914,946
252965,943
253016,942
253067,940
253117,939
253167,939
253218,938
253268,939
253319,940
253370,941
253420,941
253471,942
253521,942
253572,943
253623,946
253673,947
253724,949
253774,949
253825,949
253876,950
253926,948
253977,948
254027,947
254077,948
254129,948
254179,948
254230,948
254280,946
254330,944
254382,942
254432,941
254483,939
254533,939
254583,939
254635,938
254685,938
254736,940
254786,941
254836,941
254887,942
254938,942
254989,944
255039,944
255089,948
255140,949
255191,949
255242,950
255292,950
255342,949
255393,948
255443,950
255495,949
255545,949
255595,948
255646,948
255696,946
255748,945
255798,943
255848,942
255899,940
255949,939
256001,939
256051,937
256101,940
256152,940
256202,940
256253,941
256304,942
256354,944
256405,945
256455,947
256506,949
256557,949
256607,949
256658,949
256708,949
256759,948
256809,949
256860,947
256911,949
256961,948
257011,948
257062,946
257113,943
257164,942
257214,941
257264,940
257315,940
257366,942
257417,938
257467,938
257517,939
257568,940
257618,941
257670,940
257720,943
257770,943
257821,945
257871,948
257923,948
257973,948
258023,949
258074,949
258124,948
258176,948
258226,948
258276,946
258327,949
258377,949
258428,947
258479,946
258529,945
258580,943
258630,943
258681,941
258732,942
258782,939
258833,938
258883,938
258933,940
258984,939
259035,941
259086,942
259136,943
259186,946
259237,947
259288,948
259339,949
259389,949
259439,950
259490,949
259540,950
259592,948
259642,948
259692,948
259743,949
259793,949
259845,947
259895,945
259945,944
259996,943
260046,941
260098,940
260148,939
260198,939
260249,938
260299,939
260350,941
260401,940
260451,942
260502,942
260552,943
260603,945
260654,947
260704,946
260755,949
260805,949
260855,949
260907,949
260957,947
261008,947
261058,947
261108,949
261159,948
261210,948
261261,947
261311,945
261361,944
261412,941
261463,940
261514,939
261564,938
261614,938
261665,938
261715,940
261767,940
261817,943
261867,940
261918,943
261968,944
262020,947
262070,947
262120,949
262171,951
262221,950
262273,952
262323,949
262373,948
262424,948
262474,948
262525,949
262576,948
262626,947
262677,945
262727,946
262778,942
262829,941
262879,940
262930,938
262980,939
263030,939
263081,940
263132,940
263183,942
263233,941
263283,942
263334,943
263385,944
263436,947
263486,948
263536,949
263587,949
263638,949
263689,948
263739,948
263789,948
263840,946
263890,949
263942,949
263992,947
264042,946
264093,946
264143,942
264195,941
264245,940
264295,939
264346,938
264396,937
264448,938
264498,939
264548,940
264599,939
264649,941
264700,942
264751,944
264801,946
264852,948
264902,950
264952,951
265004,952
265054,952
265105,951
265155,951
265205,950
265256,951
265307,950
265358,951
265408,948
265458,946
265509,944
265560,942
265611,941
265661,940
265711,939
265762,939
265812,938
265864,939
265914,941
265964,941
266015,941
266065,942
266117,944
266167,946
266217,948
266268,948
266318,949
266370,951
266420,951
266470,948
266521,948
266571,947
266622,949
266673,949
266723,948
266774,947
266824,945
266874,942
266926,942
266976,941
267027,940
267077,939
267127,938
267179,939
267229,938
267280,939
267330,941
267380,940
267431,941
267482,941
267533,942
267583,945
267633,947
267684,949
267735,949
267786,949
267836,948
267886,948
267937,948
267987,950
268039,950
268089,950
268139,949
268190,947
268240,946
268292,944
268342,943
268392,941
268443,940
268493,940
268545,938
268595,939
268645,937
268696,940
268746,942
268796,942
268848,943
268898,946
268949,946
268999,947
269049,949
269101,951
269151,950
269202,949
269252,949
269302,948
269353,948
269404,948
269455,948
269505,948
269555,948
269606,946
269657,944
269708,943
269758,941
269808,941
269859,939
269910,939
269961,939
270011,938
270061,941
270112,941
270162,941
270214,942
270264,944
270314,944
270365,949
270415,948
270467,949
270517,949
270567,947
270618,950
270668,949
270720,947
270770,948
270820,948
270871,949
270921,948
270971,948
271023,946
271073,944
271124,942
271174,941
271224,939
271276,941
271326,936
271377,937
271427,939
271477,941
271528,941
271579,941
271630,943
271680,944
271730,946
271781,946
271832,949
271883,949
271933,949
271983,949
272034,948
272084,948
272136,948
272186,948
272236,949
272287,948
272337,947
272389,946
272439,945
272489,943
272540,942
272590,940
272642,939
272692,939
272742,938
272793,940
272843,940
272894,941
272945,940
272995,941
273046,943
273096,945
273146,945
273198,949
273248,949
273299,949
273349,950
273399,950
273451,948
273501,948
273552,949
273602,949
273652,949
273703,949
273754,947
273805,946
273855,944
273905,943
273956,942
274007,940
274058,939
274108,939
274158,939
274209,939
274259,941
274311,942
274361,941
274411,942
274462,944
274512,945
274564,946
274614,948
274664,949
274715,949
274765,949
274817,950
274867,950
274917,948
274968,948
275018,948
275068,950
275120,948
275170,946
275221,945
275271,944
275321,941
275373,940
275423,939
275474,939
275524,939
275574,938
275625,939
275676,938
275727,942
275777,941
275827,942
275878,944
275929,945
275980,948
276030,948
276080,950
276131,949
276182,949
276233,948
276283,948
276333,947
276384,948
276434,949
276486,949
276536,947
276586,947
276637,945
276687,944
276739,942
276789,941
276839,941
276890,940
276940,940
276992,940
277042,941
277092,941
277143,941
277193,942
277243,944
277295,945
277345,946
277396,948
277446,950
277496,950
277548,947
277598,949
277649,948
277699,948
277749,947
277800,950
277851,948
277902,951
277952,947
278002,945
278053,944
278104,942
278155,941
278205,940
278255,940
278306,939
278356,938
278408,940
278458,941
278508,941
278559,941
278609,942
278661,943
278711,946
278761,948
278812,949
278862,950
278914,950
278964,949
279014,949
279065,949
279115,948
279166,948
279217,948
279267,951
279318,947
279368,947
279419,944
279470,943
279520,942
279571,940
279621,939
279672,938
279723,939
279773,938
279824,939
279874,941
279924,941
279975,941
280026,944
280077,945
280127,947
280177,950
280228,950
280279,950
280330,949
280380,949
280430,949
280481,949
280531,950
280583,950
280633,952
280683,949
280734,948
280784,947
280836,944
280886,943
280936,942
280987,941
281037,940
281089,939
281139,938
281189,939
281240,938
281290,940
281341,941
281392,940
281442,944
281493,945
281543,947
281594,946
281645,949
281695,949
281746,949
281796,949
281847,949
281897,948
281948,948
281999,950
282049,949
282100,947
282150,947
282201,945
282252,943
282302,941
282353,940
282403,940
282454,941
282505,939
282555,937
282606,939
282656,940
282706,941
282758,941
282808,943
282858,944
282909,946
282959,947
283011,949
283061,949
283111,950
283162,950
283212,949
283264,950
283314,948
283364,952
283415,949
283465,948
283516,948
283567,946
283617,945
283668,943
283718,942
283769,942
283820,940
283870,939
283921,939
283971,939
284022,940
284072,941
284123,939
284174,943
284224,942
284275,945
284325,946
284376,948
284427,949
284477,949
284528,950
284578,949
284628,948
284680,948
284730,950
284781,948
284831,948
284881,948
284933,949
284983,947
285033,944
285084,943
285134,942
285186,942
285236,939
285286,939
285337,938
285387,938
285438,940
285489,941
285539,942
285590,942
285640,941
285691,945
285742,946
285792,948
285843,949
285893,950
285944,950
285995,949
286045,949
286096,949
286146,948
286197,948
286247,949
286298,948
286349,948
286399,947
286450,945
286500,942
286551,942
286602,941
286652,940
286703,939
286753,937
286803,940
286855,941
286905,943
286956,941
287006,943
287056,944
287108,946
287158,947
287209,948
287259,950
287309,949
287361,951
287411,949
287461,949
287512,946
287562,948
287613,948
287664,949
287714,949
287765,948
287815,948
287866,945
287917,942
287967,941
288018,940
288068,939
288119,939
288169,939
288220,939
288271,943
288321,940
288372,941
288422,942
288473,944
288524,944
288574,946
288625,949
288675,949
288726,949
288777,949
288827,949
288878,948
288928,948
288978,948
289030,948
289080,948
289131,950
289181,948
289231,946
289283,945
289333,942
289384,940
289434,940
289484,940
289536,939
289586,939
289637,941
289687,940
289737,942
289788,941
289839,943
289889,944
289940,945
289990,946
290041,948
290092,949
290142,949
290193,949
290243,949
290294,948
290344,949
290395,949
290446,949
290496,949
290547,948
290597,948
290648,946
290699,945
290749,943
290800,943
290850,941
290900,941
290952,939
291002,939
291053,939
291103,940
291153,941
291205,941
291255,942
291306,943
291356,946
291406,946
291458,947
291508,949
291559,949
291609,950
291659,949
291710,948
291761,948
291812,949
291862,948
291912,949
291963,949
292014,948
292064,947
292115,945
292165,944
292216,942
292267,943
292317,940
292368,940
292418,940
292469,939
292519,942
292570,941
292621,942
292671,942
292722,945
292772,945
292823,946
292874,948
292924,947
292975,950
293025,949
293075,948
293127,949
293177,950
293228,949
293278,948
293328,949
293380,949
293430,949
293481,947
293531,946
293581,943
293633,942
293683,941
293734,940
293784,939
293834,938
293885,940
293936,940
293987,942
294037,941
294087,941
294138,943
294189,944
294240,945
294290,947
294340,949
294391,949
294441,949
294493,949
294543,949
294593,949
294644,947
294694,948
294745,948
294796,948
294846,948
294897,946
294947,945
294998,944
295049,942
295099,941
295150,940
295200,939
295250,940
295302,938
295352,939
295403,941
295453,941
295503,941
295555,942
295605,942
295656,945
295706,947
295756,948
295808,950
295858,951
295909,951
295959,950
296009,949
296060,948
296111,948
296162,949
296212,948
296262,948
296313,947
296364,946
296415,944
296465,943
296515,941
296566,941
296616,940
296668,939
296718,939
296768,939
296819,942
296869,940
296920,941
296971,941
297021,942
297072,944
297122,946
297172,949
297224,949
297274,949
297325,950
297375,950
297425,949
297477,948
297527,948
297578,948
297628,950
297678,948
297730,948
297780,947
297831,945
297881,943
297931,942
297982,941
298033,940
298084,940
298134,938
298184,937
298235,940
298286,941
298337,941
298387,941
298437,943
298488,944
298539,948
298590,947
298640,949
298690,950
298741,949
298791,950
298842,949
298893,950
298943,947
298994,950
299044,950
299095,949
299146,948
299196,947
299247,946
299297,944
299347,943
299399,941
299449,942
299500,939
299550,939
299600,939
299652,940
299702,941
299753,941
299803,942
299853,941
299905,944
299955,945
300006,947
300056,949
300106,949
300157,950
300208,951
300259,949
300309,948
300359,950
300410,949
300461,949
300512,949
300562,948
300612,948
300663,946
300713,944
300765,942
300815,941
300865,940
300916,939
300966,939
301018,939
301068,938
301118,940
301169,941
301219,941
301271,942
301321,944
301371,944
301422,947
301472,948
301523,950
301574,950
301624,950
301675,949
301725,952
301776,950
301827,948
301877,949
301928,949
301978,948
302029,948
302080,946
302130,943
302181,946
302231,942
302282,941
302332,941
302383,939
302434,940
302484,939
302535,942
302585,942
302636,941
302687,941
302737,943
302787,945
302838,945
302888,947
302940,949
302990,950
303041,950
303091,951
303141,949
303193,949
303243,949
303293,948
303344,949
303394,947
303446,948
303496,948
303546,945
303597,944
303647,942
303698,942
303749,940
303799,939
303850,939
303900,938
303951,940
304002,942
304052,941
304103,941
304153,942
304204,944
304254,946
304305,947
304356,948
304406,949
304457,949
304507,949
304558,948
304609,950
304659,948
304710,948
304760,949
304811,950
304862,948
304912,946
304963,946
305013,944
305063,942
305115,941
305165,941
305216,939
305266,940
305316,939
305368,939
305418,940
305469,941
305519,942
305569,942
305620,944
305671,946
305722,947
305772,948
305822,949
305873,949
305924,950
305975,950
306025,949
306075,949
306126,948
306177,948
306228,948
306278,948
306328,947
306379,946
306429,944
306481,943
306531,942
306581,941
306632,941
306682,939
306734,938
306784,940
306834,941
306885,941
306935,940
306987,942
307037,944
307087,946
307138,947
307188,948
307239,949
307290,949
307340,950
307391,950
307441,950
307492,948
307543,950
307593,949
307644,949
307694,947
307745,947
307795,946
307846,944
307897,943
307947,942
307998,942
308048,939
308099,939
308150,939
308200,939
308250,941
308301,941
308352,941
308403,941
308453,945
308503,945
308554,946
308604,948
308656,949
308706,950
308756,950
308807,950
308857,948
308909,950
308959,948
309009,948
309060,950
309110,949
309161,948
309212,947
309262,946
309313,944
309363,944
309414,943
309465,944
309515,953
309566,1004
309616,1023
309667,1023
309718,1023
309769,1023
309819,1023
309869,1023
309920,1023
309970,1020
310022,1015
310072,1012
310123,1008
310173,1007
310224,1000
310275,997
310325,991
310376,989
310426,987
310477,986
310528,982
310578,975
310629,971
310679,966
310730,960
310780,948
310831,938
310882,940
310932,944
310983,953
311033,960
311084,964
311135,960
311185,957
311236,952
311286,950
311336,950
311388,951
311438,952
311489,955
311539,957
311589,958
311641,960
311691,961
311742,962
311792,967
311842,971
311894,974
311944,977
311995,979
312045,978
312095,976
312146,970
312197,959
312248,950
312298,939
312348,935
312399,937
312450,940
312501,938
312551,938
312601,940
312652,941
312702,942
312754,944
312804,947
312854,948
312905,948
312955,947
313007,946
313057,946
313107,943
313158,943
313208,945
313259,946
313310,947
313360,948
313411,947
313461,943
313511,942
313563,942
313613,941
313664,940
313714,941
313764,941
313816,944
313866,943
313917,943
313967,944
314017,943
314068,944
314119,943
314170,945
314220,946
314270,948
314321,952
314372,958
314423,962
314473,964
314523,964
314574,962
314625,964
314676,969
314726,972
314776,970
314827,963
314877,953
314929,948
314979,946
315029,945
315080,945
315130,944
315182,942
315232,943
315282,944
315333,943
315383,942
315435,946
315485,952
315535,962
315586,970
315636,976
315687,981
315738,984
315788,985
315839,987
315889,989
315940,992
315991,995
316041,994
316092,992
316142,987
316193,980
316243,972
316294,964
316345,955
316395,948
316446,946
316496,942
316547,942
316598,944
316648,948
316699,950
316749,950
316800,950
316851,951
316901,953
316952,954
317002,954
317052,948
317104,945
317154,946
317205,948
317255,949
317305,949
317357,949
317407,948
317458,946
317508,944
317558,942
317609,940
317660,941
317711,940
317761,939
317811,939
317862,937
317913,939
317964,936
318014,937
318064,941
318115,945
318166,946
318217,945
318267,945
318317,945
318368,948
318418,948
318470,949
318520,949
318570,948
318621,948
318671,948
318723,948
318773,946
318823,948
318874,947
318924,948
318976,947
319026,946
319076,945
319127,942
319177,942
319228,941
319279,940
319329,938
319380,938
319430,937
319481,939
319532,941
319582,940
319633,941
319683,943
319734,944
319784,946
319835,948
319886,950
319936,950
319987,951
320037,951
320088,952
320139,953
320189,954
320240,955
320290,964
320340,974
320392,979
320442,980
320493,977
320543,970
320593,965
320645,960
320695,953
320746,948
320796,944
320846,941
320898,942
320948,944
320998,943
321049,944
321099,945
321150,946
321201,948
321251,949
321302,950
321352,951
321403,951
321454,950
321504,950
321555,949
321605,948
321656,948
321707,948
321757,948
321808,947
321858,945
321909,945
321959,942
322010,941
322061,940
322111,940
322162,939
322212,939
322263,938
322314,939
322364,940
322415,940
322465,940
322515,942
322567,943
322617,945
322668,947
322718,948
322768,949
322820,951
322870,951
322921,949
322971,950
323021,949
323073,949
323123,948
323173,949
323224,948
323274,947
323325,945
323376,942
323426,941
323477,940
323527,939
323578,938
323629,939
323679,939
323730,941
323780,941
323831,941
323881,942
323932,944
323983,945
324033,947
324084,948
324134,948
324185,949
324236,950
324286,949
324337,948
324387,948
324438,948
324489,947
324539,949
324590,948
324640,949
324690,946
324742,944
324792,943
324843,942
324893,941
324943,939
324995,939
325045,938
325096,941
325146,940
325196,941
325248,941
325298,942
325348,942
325399,944
325449,945
325500,948
325551,949
325601,949
325652,949
325702,949
325753,949
325804,949
325854,947
325905,948
325955,949
326006,949
326056,948
326107,947
326158,946
326208,943
326259,942
326309,941
326360,939
326411,939
326461,940
326512,939
326562,940
326612,939
326664,941
326714,943
326765,944
326815,946
326865,946
326917,948
326967,949
327018,949
327068,949
327118,948
327170,949
327220,948
327270,948
327321,950
327371,948
327422,949
327473,948
327523,945
327574,944
327624,942
327675,942
327726,939
327776,939
327827,939
327877,938
327928,940
327979,942
328029,942
328080,942
328130,943
328181,942
328231,944
328282,947
328333,948
328383,947
328434,949
328484,948
328535,948
328586,948
328636,948
328687,947
328737,950
328787,949
328839,947
328889,947
328940,945
328990,943
329040,942
329092,941
329142,941
329193,939
329243,939
329293,939
329345,940
329395,941
329446,941
329496,942
329546,945
329597,945
329648,947
329699,948
329749,949
329799,948
329850,948
329901,949
329951,949
330002,949
330052,946
330103,948
330153,950
330204,949
330255,949
330305,946
330356,945
330406,943
330457,940
330508,939
330558,938
330609,937
330659,936
330710,938
330761,940
330811,941
330862,941
330912,944
330962,943
331014,946
331064,948
331115,949
331165,950
331215,950
331267,950
331317,949
331368,949
331418,949
331468,948
331520,949
331570,949
331621,948
331671,947
331721,946
331772,943
331823,944
331873,940
331924,939
331974,940
332025,938
332076,939
332126,940
332177,941
332227,940
332278,943
332328,944
332379,945
332430,947
332480,947
332531,948
332581,953
332632,967
332683,988
332733,1001
332784,998
332834,991
332884,986
332936,980
332986,973
333037,968
333087,965
333137,962
333189,957
333239,956
333290,953
333340,950
333390,948
333442,946
333492,946
333543,948
333593,946
333643,946
333694,947
333745,949
333796,951
333846,952
333896,952
333947,951
333998,951
334049,951
334099,951
334149,949
334200,950
334251,950
334302,951
334352,951
334402,949
334453,946
334503,945
334554,943
334605,941
334655,941
334706,940
334756,939
334807,938
334858,938
334908,941
334959,941
335009,940
335059,942
335111,943
335161,946
335212,946
335262,948
335312,949
335364,951
335414,949
335465,948
335515,948
335565,948
335617,948
335667,949
335718,950
335768,948
335818,949
335869,945
335920,943
335971,942
336021,941
336071,940
336122,939
336173,938
336224,939
336274,941
336324,941
336375,941
336425,941
336476,943
336527,944
336577,946
336628,948
336678,948
336729,949
336780,950
336830,950
336881,949
336931,948
336982,948
337033,948
337083,949
337134,947
337184,946
337234,946
337286,944
337336,943
337387,941
337437,940
337487,940
337539,939
337589,938
337640,939
337690,940
337740,941
337792,940
337842,943
337893,943
337943,945
337993,948
338044,949
338095,952
338146,950
338196,950
338246,950
338297,948
338348,948
338399,947
338449,949
338499,948
338550,948
338600,947
338651,945
338702,942
338752,941
338803,941
338853,940
338904,940
338955,939
339005,940
339056,941
339106,942
339156,942
339208,941
339258,943
339309,945
339359,947
339409,948
339461,949
339511,949
339562,949
339612,949
339662,948
339714,948
339764,948
339815,950
339865,949
339915,949
339966,947
340017,947
340068,945
340118,942
340168,943
340219,941
340270,939
340321,939
340371,939
340421,940
340472,942
340523,942
340574,942
340624,943
340674,943
340725,945
340775,949
340826,949
340877,950
340927,949
340978,949
341028,949
341079,949
341130,948
341180,949
341231,949
341281,948
341331,948
341383,946
341433,944
341484,943
341534,942
341584,941
341636,941
341686,939
341737,939
341787,940
341837,941
341889,941
341939,941
341990,942
342040,943
342090,946
342141,947
342192,948
342243,949
342293,949
342343,949
342394,948
342445,949
342496,947
342546,948
342596,948
342647,948
342697,948
342748,946
342799,946
342849,943
342900,942
342950,941
343001,939
343052,939
343102,939
343153,939
343203,940
343254,941
343305,942
343355,943
343406,944
343456,945
343506,946
343558,950
343608,950
343659,950
343709,950
343759,949
343811,949
343861,948
343912,950
343962,949
344012,948
344064,948
344114,947
344165,946
344215,944
344265,944
344316,941
344367,940
344418,940
344468,938
344518,939
344569,939
344620,940
344671,941
344721,941
344771,943
344822,945
344872,946
344923,946
344974,949
345024,949
345075,950
345125,949
345176,949
345227,950
345277,948
345328,948
345378,949
345428,948
345480,948
345530,947
345581,944
345631,943
345681,942
345733,942
345783,939
345834,939
345884,939
345934,939
345986,942
346036,942
346087,941
346137,942
346187,947
346238,945
346289,947
346340,948
346390,949
346440,950
346491,950
346542,950
346593,949
346643,951
346693,948
346744,950
346795,950
346845,949
346896,947
346946,945
346997,944
347047,942
347098,940
347149,939
347199,939
347250,939
347300,938
347351,940
347402,941
347452,941
347503,941
347553,943
347603,944
347655,946
347705,947
347756,949
347806,949
347856,949
347908,950
347958,949
348009,948
348059,948
348109,948
348161,949
348211,949
348262,948
348312,947
348362,945
348413,943
348464,942
348515,941
348565,940
348615,939
348666,939
348717,940
348767,940
348818,941
348868,941
348919,943
348969,945
349020,945
349071,948
349121,949
349172,949
349222,950
349273,949
349324,949
349374,948
349425,948
349475,948
349526,949
349577,949
349627,949
349678,947
349728,946
349778,943
349830,943
349880,941
349931,940
349981,939
350031,940
350083,940
350133,940
350184,943
350234,942
350284,941
350336,943
350386,944
350437,946
350487,947
350537,950
350588,949
350639,952
350690,950
350740,950
350790,949
350841,948
350892,948
350943,949
350993,948
351043,947
351094,948
351144,945
351196,943
351246,941
351296,941
351347,942
351397,939
351448,939
351499,939
351549,940
351600,942
351650,942
351700,941
351752,943
351802,946
351853,946
351903,949
351953,948
352005,951
352055,950
352106,950
352156,949
352206,948
352258,948
352308,949
352359,948
352409,949
352459,948
352510,946
352561,944
352612,942
352662,941
352712,941
352763,939
352814,940
352865,938
352915,939
352965,940
353016,942
353067,942
353118,942
353168,944
353218,943
353269,947
353319,949
353371,949
353421,950
353471,950
353522,949
353572,949
353623,949
353674,948
353724,950
353775,949
353825,949
353875,948
353927,946
353977,944
354028,942
354078,942
354128,941
354180,941
354230,938
354281,938
354331,940
354381,941
354433,941
354483,941
354534,943
354584,944
354634,946
354685,949
354736,949
354787,950
354837,951
354887,950
354938,950
354989,949
355040,948
355090,950
355140,949
355191,950
355241,948
355293,947
355343,946
355393,943
355444,941
355494,941
355546,940
355596,940
355646,939
355697,939
355747,940
355799,940
355849,940
355899,942
355950,943
356000,947
356050,947
356102,949
356152,949
356203,949
356253,950
356303,949
356355,948
356405,948
356456,947
356506,947
356556,948
356608,949
356658,947
356709,946
356759,944
356809,942
356860,942
356911,940
356962,940
357012,939
357062,939
357113,940
357164,940
357215,941
357265,942
357315,942
357366,943
357416,945
357468,946
357518,948
357568,949
357619,950
357669,949
357721,950
357771,949
357821,948
357872,948
357922,949
357974,950
358024,949
358074,948
358125,946
358175,944
358226,943
358277,941
358327,941
358378,940
358428,939
358479,938
358530,939
358580,941
358631,941
358681,942
358732,942
358782,944
358833,944
358884,947
358934,948
358985,949
359035,949
359086,952
359137,950
359187,949
359237,946
359288,948
359339,948
359390,949
359440,949
359490,948
359541,948
359591,944
359643,943
359693,941
359743,941
359794,940
359844,939
359896,939
359946,939
359996,942
360047,940
360097,941
360148,942
360199,943
360249,946
360300,947
360350,950
360401,950
360452,949
360502,951
360553,949
360603,949
360654,947
360705,947
360755,948
360806,951
360856,948
360907,950
360957,947
361008,944
361059,943
361109,942
361159,941
361210,941
361261,939
361312,939
361362,939
361412,941
361463,942
361513,942
361565,942
361615,944
361665,945
361716,947
361766,949
361818,950
361868,950
361918,950
361969,951
362019,950
362071,949
362121,948
362171,949
362222,950
362272,949
362323,948
362374,946
362424,944
362475,943
362525,943
362576,942
362627,941
362677,939
362728,939
362778,939
362829,940
362880,940
362930,941
362981,942
363031,943
363082,945
363132,946
363183,949
363234,949
363284,949
363334,950
363385,950
363436,949
363487,948
363537,948
363587,947
363638,948
363688,948
363740,946
363790,946
363840,945
363891,943
363941,941
363993,942
364043,940
364093,939
364144,939
364194,940
364246,940
364296,941
364346,941
364397,942
364447,943
364498,944
364549,946
364599,948
364650,949
364700,950
364751,950
364802,950
364852,950
364903,952
364953,949
365004,947
365054,949
365105,949
365156,949
365206,948
365257,947
365307,944
365358,943
365409,942
365459,942
365509,940
365560,939
365611,939
365662,939
365712,942
365762,941
365813,941
365863,942
365915,944
365965,945
366015,947
366066,949
366116,949
366168,949
366218,950
366268,952
366319,949
366369,948
366420,949
366471,948
366521,949
366572,949
366622,947
366673,946
366724,947
366774,943
366825,941
366875,941
366926,939
366977,939
367027,938
367078,940
367128,939
367179,943
367229,941
367280,941
367331,944
367381,945
367432,947
367482,949
367533,949
367584,950
367634,950
367685,950
367735,949
367785,950
367837,948
367887,949
367938,949
367988,948
368038,948
368090,947
368140,945
368191,943
368241,942
368291,941
368343,940
368393,939
368444,938
368494,939
368544,942
368595,940
368646,941
368696,941
368747,942
368797,944
368848,946
368899,949
368949,948
369000,949
369050,949
369101,950
369152,948
369202,949
369253,948
369303,948
369354,950
369404,949
369455,948
369506,946
369556,944
369607,943
369657,941
369708,942
369759,939
369809,939
369860,939
369910,938
369960,940
370012,941
370062,941
370113,940
370163,942
370213,944
370265,945
370315,948
370366,949
370416,949
370466,950
370518,950
370568,950
370618,947
370669,949
370719,950
370770,949
370821,949
370871,949
370922,947
370972,946
371023,943
371074,942
371124,941
371175,941
371225,939
371276,939
371326,940
371377,940
371428,941
371478,941
371529,942
371579,943
371630,944
371681,946
371731,948
371782,948
371832,949
371883,948
371934,949
371984,950
372035,950
372085,950
372135,948
372187,949
372237,950
372288,949
372338,947
372388,945
372440,944
372490,942
372541,942
372591,940
372641,939
372692,939
372743,939
372794,939
372844,940
372894,941
372945,941
372996,943
373046,944
373097,945
373147,948
373198,949
373249,950
373299,947
373350,950
373400,950
373451,950
373501,949
373552,948
373603,950
373653,949
373704,949
373754,948
373805,946
373856,943
373906,944
373957,942
374007,940
374057,940
374109,939
374159,939
374210,939
374260,941
374310,941
374362,941
374412,942
374463,944
374513,946
374563,948
374615,949
374665,949
374716,950
374766,950
374816,950
374867,949
374918,948
374969,949
375019,948
375069,949
375120,948
375171,948
375222,947
375272,946
375322,943
375373,942
375424,941
375475,939
375525,940
375575,937
375626,939
375676,940
375728,941
375778,940
375828,941
375879,943
375929,944
375981,947
376031,948
376081,948
376132,950
376182,950
376233,950
376284,949
376334,949
376385,948
376435,948
376485,949
376537,950
376587,949
376638,947
376688,945
376738,942
376790,942
376840,942
376891,941
376941,940
376991,940
377042,939
377093,942
377144,942
377194,941
377244,942
377295,943
377346,945
377397,946
377447,948
377497,948
377548,951
377598,950
377650,950
377700,950
377750,949
377801,949
377851,948
377903,950
377953,950
378003,948
378054,948
378104,945
378156,943
378206,943
378256,942
378307,940
378357,940
378408,939
378459,940
378509,940
378560,941
378610,941
378661,942
378712,942
378762,943
378813,947
378863,948
378914,949
378964,950
379015,950
379066,950
379116,950
379167,949
379217,948
379268,948
379319,948
379369,948
379420,948
379470,947
379521,946
379572,943
379622,943
379673,941
379723,940
379773,940
379825,938
379875,939
379926,940
379976,941
380026,942
380078,942
380128,943
380179,945
380229,946
380279,948
380331,949
380381,949
380432,950
380482,950
380532,949
380583,949
380634,949
380685,948
380735,950
380785,949
380836,948
380887,947
380937,946
380988,945
381038,942
381089,943
381139,940
381190,939
381241,939
381291,939
381342,940
381392,939
381444,940
381494,941
381544,942
381595,944
381645,946
381696,947
381747,949
381797,950
381848,950
381898,950
381948,949
382000,950
382050,949
382101,947
382151,948
382201,949
382253,949
382303,947
382354,947
382404,944
382454,944
382505,941
382556,940
382607,940
382657,938
382707,939
382758,940
382809,941
382860,942
382910,941
382961,942
383011,943
383062,946
383113,947
383163,948
383214,948
383264,950
383314,950
383366,950
383416,949
383467,948
383517,948
383567,948
383619,948
383669,948
383720,946
383770,946
383820,944
383872,942
383922,942
383973,941
384023,940
384073,940
384124,939
384175,941
384225,941
384276,943
384326,942
384377,942
384428,944
384478,945
384529,947
384579,949
384630,949
384680,950
384731,949
384782,949
384832,949
384883,948
384933,949
384984,948
385035,949
385085,949
385136,947
385186,948
385236,944
385288,944
385338,942
385389,942
385439,942
385489,943
385541,953
385591,986
385642,1018
385692,1022
385742,1023
385794,1022
385844,1023
385895,1023
385945,1022
385996,1023
386046,1019
386098,1013
386148,999
386198,988
386249,978
386299,972
386351,971
386401,969
386451,968
386502,964
386552,962
386604,957
386654,954
386704,950
386755,951
386805,948
386856,945
386907,943
386957,940
387008,940
387058,940
387109,941
387160,943
387210,944
387261,946
387311,947
387362,950
387412,951
387463,951
387514,952
387564,952
387615,952
387665,951
387716,951
387767,952
387817,953
387868,952
387918,953
387969,950
388020,954
388070,962
388120,966
388171,957
388221,957
388273,962
388323,958
388373,955
388424,955
388474,956
388526,959
388576,965
388626,973
388677,984
388727,995
388779,996
388829,995
388879,993
388930,984
388980,973
389031,967
389082,964
389132,959
389183,957
389233,955
389284,955
389335,953
389385,951
389436,948
389486,946
389537,945
389587,945
389638,942
389689,942
389739,943
389790,941
389840,942
389891,943
389942,943
389992,944
390043,945
390093,946
390144,946
390195,952
390245,950
390295,951
390346,951
390396,950
390448,950
390498,949
390548,948
390599,948
390649,951
390701,947
390751,947
390801,946
390852,946
390902,944
390953,943
391004,943
391054,940
391105,942
391155,940
391206,940
391257,941
391307,941
391358,942
391408,942
391459,945
391510,945
391560,946
391611,949
391661,949
391712,949
391762,949
391813,949
391864,948
391914,948
391965,947
392015,948
392066,948
392117,948
392167,948
392218,946
392268,944
392318,942
392370,942
392420,940
392471,939
392521,939
392571,938
392623,938
392673,940
392724,941
392774,942
392824,941
392876,944
392926,946
392976,946
393027,950
393077,949
393128,949
393179,949
393229,949
393280,949
393330,948
393381,947
393432,948
393482,948
393533,946
393583,947
393634,945
393684,943
393735,942
393786,941
393836,940
393887,940
393937,939
393988,939
394039,939
394089,941
394140,941
394190,942
394241,942
394292,944
394342,946
394393,948
394443,948
394493,949
394545,950
394595,950
394646,949
394696,948
394746,947
394798,948
394848,947
394899,948
394949,947
394999,947
395051,944
395101,944
395152,942
395202,940
395252,939
395303,939
395354,938
395405,939
395455,941
395505,941
395556,940
395607,942
395658,943
395708,945
395758,946
395809,948
395859,949
395911,950
395961,949
396011,951
396062,949
396112,947
396164,947
396214,947
396264,947
396315,948
396365,948
396417,945
396467,944
396517,942
396568,941
396618,940
396669,940
396720,938
396770,938
396821,939
396871,941
396922,941
396973,941
397023,942
397074,944
397124,945
397175,947
397225,949
397276,950
397327,949
397377,951
397428,949
397478,949
397529,948
397580,948
397630,948
397680,948
397731,948
397782,945
397833,945
397883,944
397933,942
397984,942
398034,940
398086,940
398136,940
398186,940
398237,939
398287,941
398339,942
398389,942
398439,942
398490,944
398540,946
398592,947
398642,950
398692,949
398743,949
398793,948
398844,948
398895,949
398945,948
398996,948
399046,948
399097,948
399148,948
399198,946
399249,946
399299,944
399350,942
399400,940
399451,940
399502,938
399552,938
399603,939
399653,940
399704,940
399755,941
399805,942
399856,942
399906,945
399956,947
400008,948
400058,948
400109,950
400159,950
400209,951
400261,949
400311,948
400362,948
400412,947
400462,950
400514,948
400564,947
400615,946
400665,944
400715,943
400766,941
400817,941
400868,939
400918,941
400968,939
401019,939
401070,941
401121,941
401171,942
401221,941
401272,944
401323,945
401373,950
401424,949
401474,950
401525,950
401575,949
401626,950
401677,949
401727,948
401778,947
401828,951
401879,948
401930,948
401980,947
402031,944
402081,945
402131,943
402183,942
402233,942
402284,942
402334,940
402384,938
402436,939
402486,940
402537,941
402587,941
402637,941
402689,944
402739,945
402790,948
402840,948
402890,949
402941,950
402992,949
403043,949
403093,948
403143,947
403194,949
403245,947
403296,948
403346,947
403396,945
403447,946
403497,944
403549,943
403599,941
403649,942
403700,939
403750,939
403801,939
403852,939
403902,941
403953,941
404003,941
404054,942
404105,943
404155,944
404206,946
404256,948
404306,947
404358,950
404408,949
404459,948
404509,950
404559,949
404611,949
404661,950
404712,950
404762,949
404812,948
404864,947
404914,946
404965,944
405015,944
405065,942
405116,942
405167,941
405218,941
405268,943
405318,944
405369,944
405420,944
405471,945
405521,947
405571,947
405622,950
405672,951
405724,951
405774,951
405824,949
405875,950
405925,949
405977,949
406027,947
406077,948
406128,948
406178,947
406230,946
406280,946
406330,942
406381,941
406431,940
406481,938
406533,938
406583,939
406634,939
406684,939
406734,943
406786,941
406836,942
406887,943
406937,944
406987,946
407038,948
407089,949
407140,949
407190,948
407240,948
407291,948
407342,947
407393,947
407443,948
407493,948
407544,950
407595,947
407646,948
407696,944
407746,942
407797,941
407847,939
407899,939
407949,939
407999,940
408050,940
408100,944
408152,942
408202,943
408252,943
408303,945
408353,946
408404,948
408455,950
408505,950
408556,952
408606,950
408657,949
408708,948
408758,947
408809,947
408859,948
408910,948
408961,947
409011,947
409062,945
409112,943
409163,942
409213,942
409264,941
409315,940
409365,942
409416,941
409466,945
409517,943
409568,943
409618,944
409669,945
409719,946
409769,948
409821,951
409871,950
409922,949
409972,950
410022,951
410074,950
410124,948
410175,948
410225,947
410275,948
410327,948
410377,946
410428,945
410478,943
410528,941
410579,941
410630,940
410680,940
410731,940
410781,939
410832,939
410883,941
410933,941
410984,942
411034,943
411085,944
411136,945
411186,947
411237,948
411287,949
411338,949
411388,949
411439,949
411490,949
411540,948
411591,947
411641,949
411692,947
411743,947
411793,946
411844,944
411894,943
411944,941
411996,941
412046,940
412097,939
412147,938
412197,939
412249,940
412299,941
412350,941
412400,941
412450,944
412502,944
412552,948
412602,948
412653,949
412703,950
412754,950
412805,949
412855,948
412906,948
412956,948
413007,948
413058,948
413108,948
413159,947
413209,945
413260,944
413310,942
413361,943
413412,940
413462,941
413513,938
413563,939
413614,940
413665,941
413715,941
413766,943
413816,945
413867,944
413918,948
413968,948
414019,949
414069,948
414119,947
414171,949
414221,947
414272,947
414322,946
414372,946
414424,947
414474,947
414525,947
414575,944
414625,944
414676,942
414727,941
414777,940
414828,939
414878,940
414929,940
414980,940
415030,942
415081,942
415131,942
415182,944
415233,945
415283,947
415334,948
415384,949
415435,950
415485,951
415536,950
415587,950
415637,950
415688,949
415738,952
415789,949
415840,950
415890,949
415941,948
415991,946
416041,943
416093,942
416143,941
416194,942
416244,938
416294,939
416346,938
416396,939
416447,942
416497,941
416547,941
416599,944
416649,945
416700,947
416750,948
416800,948
416851,948
416902,950
416952,949
417003,948
417053,947
417104,947
417155,947
417205,949
417256,948
417306,946
417357,945
417408,943
417458,943
417509,941
417559,939
417610,937
417660,938
417711,939
417762,939
417812,942
417863,941
417913,942
417964,943
418015,944
418065,945
418116,947
418166,948
418216,947
418268,949
418318,950
418369,948
418419,948
418469,947
418521,947
418571,949
418622,948
418672,947
418722,944
418774,944
418824,944
418875,941
418925,940
418975,938
419026,939
419077,939
419127,941
419178,943
419228,942
419279,944
419330,944
419380,945
419431,947
419481,948
419532,950
419582,950
419633,951
419684,950
419734,949
419785,948
419835,947
419886,948
419937,949
419987,949
420038,947
420088,945
420139,944
420190,943
420240,941
420291,940
420341,940
420391,940
420443,939
420493,940
420544,941
420594,941
420644,943
420696,942
420746,944
420797,946
420847,948
420897,949
420948,949
420999,950
421049,949
421100,951
421150,948
421201,947
421252,948
421302,949
421353,949
421403,947
421454,946
421505,945
421555,943
421606,942
421656,941
421707,940
421757,940
421808,939
421859,941
421909,942
421960,942
422010,944
422061,944
422112,946
422162,947
422213,948
422263,950
422313,949
422365,950
422415,949
422466,950
422516,948
422566,948
422618,948
422668,948
422719,949
422769,947
422819,946
422871,943
422921,944
422972,940
423022,940
423072,939
423123,939
423174,938
423224,940
423275,942
423325,941
423376,943
423427,943
423477,944
423528,946
423578,947
423629,948
423680,948
423730,950
423781,949
423831,948
423882,948
423932,947
423983,948
424034,947
424084,947
424135,946
424185,945
424236,943
424287,944
424337,940
424388,939
424438,939
424488,939
424540,939
424590,940
424641,941
424691,941
424741,943
424793,943
424843,945
424894,946
424944,948
424994,948
425046,949
425096,949
425146,949
425197,949
425247,949
425298,948
425349,948
425399,948
425450,949
425500,947
425551,946
425602,943
425652,943
425703,942
425753,940
425804,940
425854,940
425905,940
425956,942
426006,942
426057,943
426107,943
426158,944
426209,945
426259,947
426310,948
426360,950
426411,949
426462,951
426512,950
426563,949
426613,948
426663,948
426715,950
426765,948
426816,948
426866,947
426916,945
426968,944
427018,942
427069,941
427119,940
427169,938
427220,939
427271,939
427321,941
427372,943
427422,941
427473,942
427524,943
427574,945
427625,946
427675,948
427726,948
427777,949
427827,951
427878,948
427928,948
427979,948
428029,947
428080,948
428131,948
428181,948
428232,947
428282,948
428333,943
428384,942
428434,941
428485,940
428535,940
428585,940
428637,939
428687,941
428738,943
428788,943
428838,943
428890,944
428940,945
428991,947
429041,948
429091,948
429143,951
429193,952
429243,949
429294,949
429344,948
429395,947
429446,950
429496,949
429547,949
429597,946
429648,945
429699,943
429749,942
429800,941
429850,940
429901,939
429952,939
430002,938
430053,941
430103,942
430154,941
430204,941
430255,944
430306,944
430356,947
430407,949
430457,947
430508,949
430559,949
430609,948
430660,948
430710,947
430760,947
430812,949
430862,948
430913,948
430963,945
431013,944
431065,942
431115,941
431166,939
431216,939
431266,939
431318,938
431368,939
431419,940
431469,941
431519,941
431570,942
431621,944
431672,945
431722,947
431772,947
431823,949
431874,950
431924,949
431975,949
432025,949
432076,949
432126,947
432177,949
432228,948
432278,950
432329,946
432379,944
432430,943
432481,941
432531,941
432582,940
432632,939
432683,939
432734,940
432784,940
432835,941
432885,942
432935,942
432987,945
433037,946
433088,947
433138,948
433188,949
433240,950
433290,949
433341,950
433391,949
433441,948
433492,947
433543,949
433594,949
433644,949
433694,948
433745,945
433796,943
433847,942
433897,941
433947,940
433998,940
434049,940
434100,941
434150,941
434200,941
434251,942
434301,944
434352,944
434403,945
434453,947
434504,948
434554,951
434605,949
434656,949
434706,948
434757,948
434807,948
434857,946
434909,948
434959,948
435010,948
435060,946
435110,944
435162,942
435212,941
435263,940
435313,940
435363,940
435415,938
435465,940
435516,940
435566,941
435616,941
435667,942
435718,943
435769,944
435819,946
435869,948
435920,952
435971,950
436022,950
436072,948
436122,949
436173,949
436224,948
436275,949
436325,948
436375,948
436426,948
436476,946
436528,944
436578,943
436628,944
436679,942
436729,941
436781,941
436831,941
436881,943
436932,943
436982,943
437032,944
437084,946
437134,947
437185,950
437235,950
437285,951
437337,951
437387,951
437438,950
437488,949
437538,949
437590,948
437640,950
437691,949
437741,951
437791,947
437842,945
437893,943
437944,942
437994,942
438044,940
438095,939
438146,939
438197,944
438247,940
438297,941
438348,942
438398,943
438450,944
438500,945
438550,947
438601,948
438651,951
438703,948
438753,949
438803,948
438854,948
438904,948
438956,947
439006,947
439056,947
439107,947
439157,946
439208,943
439259,942
439309,941
439360,941
439410,940
439460,940
439512,940
439562,939
439613,942
439663,941
439714,942
439764,943
439815,944
439866,945
439916,949
439967,949
440017,950
440068,951
440119,949
440169,949
440219,949
440270,947
440321,948
440372,949
440422,948
440472,947
440523,946
440573,944
440625,943
440675,941
440725,941
440776,939
440826,940
440878,938
440928,939
440978,939
441029,941
441079,942
441131,943
441181,945
441231,946
441282,948
441332,949
441383,949
441434,949
441484,950
441535,949
441585,949
441636,948
441687,947
441737,949
441788,948
441838,947
441889,946
441939,944
441990,941
442041,941
442091,941
442142,939
442192,940
442243,938
442294,939
442344,940
442394,940
442445,942
442496,943
442547,945
442597,945
442647,948
442698,949
442748,949
442800,950
442850,949
442900,949
442951,948
443001,947
443053,948
443103,950
443153,948
443204,947
443254,944
443305,944
443356,943
443406,941
443457,940
443507,940
443558,939
443609,939
443659,939
443710,940
443760,941
443811,942
443862,943
443912,944
443963,946
444013,950
444064,950
444114,950
444165,950
444216,951
444266,950
444317,950
444367,949
444418,949
444469,949
444519,949
444570,949
444620,949
444670,946
444722,945
444772,944
444823,943
444873,940
444923,940
444975,939
445025,940
445076,941
445126,942
445176,941
445228,943
445278,944
445328,945
445379,948
445429,949
445480,949
445531,949
445581,949
445632,949
445682,949
445733,947
445784,947
445834,948
445885,948
445935,947
445986,946
446036,945
446087,943
446138,941
446188,941
446239,939
446289,939
446340,939
446391,939
446441,940
446492,941
446542,942
446593,942
446644,945
446694,946
446745,947
446795,948
446845,949
446897,949
446947,950
446998,949
447048,948
447098,949
447150,947
447200,949
447251,949
447301,948
447351,946
447403,945
447453,943
447504,942
447554,941
447604,940
447655,939
447706,938
447757,939
447807,940
447857,941
447908,942
447959,942
448010,943
448060,945
448110,946
448161,948
448211,948
448263,949
448313,949
448363,949
448414,947
448464,949
448516,946
448566,947
448616,947
448667,946
448717,946
448769,944
448819,943
448869,939
448920,942
448970,939
449020,937
449072,938
449122,937
449173,940
449223,941
449273,940
449325,942
449375,944
449426,945
449476,947
449526,949
449577,949
449628,950
449679,949
449729,950
449779,949
449830,948
449881,948
449932,948
449982,948
450032,948
450083,947
450134,946
450185,944
450235,942
450285,941
450336,940
450386,940
450438,939
450488,939
450538,941
450589,942
450639,942
450691,943
450741,944
450791,946
450842,948
450892,949
450944,949
450994,950
451044,950
451095,949
451145,948
451196,950
451247,948
451297,949
451348,949
451398,948
451448,947
451500,946
451550,943
451601,943
451651,941
451701,941
451752,940
451803,939
451854,939
451904,940
451954,941
452005,941
452056,942
452107,943
452157,945
452207,946
452258,949
452308,949
452360,950
452410,949
452460,950
452511,948
452561,948
452613,947
452663,948
452713,948
452764,948
452814,948
452866,945
452916,945
452966,942
453017,941
453067,940
453118,939
453169,939
453219,938
453270,940
453320,941
453370,943
453422,942
453472,943
453523,944
453573,946
453623,948
453675,950
453725,950
453776,950
453826,949
453876,949
453927,948
453978,948
454029,948
454079,948
454129,949
454180,948
454231,946
454282,946
454332,942
454382,941
454433,941
454483,940
454535,940
454585,940
454635,940
454686,941
454736,944
454788,942
454838,943
454888,944
454939,946
454989,948
455041,949
455091,951
455141,950
455192,949
455242,949
455293,949
455344,947
455394,947
455445,948
455495,947
455546,947
455597,945
455647,946
455698,942
455748,939
455799,940
455849,939
455900,938
455951,938
456001,939
456052,940
456102,940
456153,941
456204,942
456254,944
456304,946
456355,947
456406,949
456457,950
456507,950
456557,953
456608,950
456658,950
456710,949
456760,948
456810,951
456861,949
456911,950
456963,948
457013,949
457063,944
457114,943
457164,942
457216,941
457266,941
457316,940
457367,940
457417,942
457468,942
457519,942
457569,942
457620,944
457670,945
457721,947
457772,948
457822,949
457873,950
457923,951
457974,949
458024,948
458075,947
458126,947
458176,948
458227,948
458277,947
458328,946
458379,948
458429,943
458480,941
458530,941
458580,939
458632,939
458682,939
458733,939
458783,939
458833,943
458885,942
458935,942
458985,941
459036,945
459086,947
459138,948
459188,950
459238,949
459289,948
459339,949
459390,948
459441,950
459492,947
459542,948
459592,947
459643,949
459694,947
459744,945
459795,943
459845,942
459896,941
459947,940
459997,940
460048,938
460098,938
460149,939
460199,941
460250,940
460301,942
460351,943
460402,946
460452,946
460503,948
460554,947
460604,950
460655,950
460705,950
460755,949
460807,948
460857,948
460908,948
460958,949
461008,947
461060,947
461110,946
461161,945
461211,943
461261,942
461313,941
461363,941
461414,939
461464,939
461514,939
461565,940
461616,941
461667,941
461717,943
461767,944
461818,946
461869,947
461920,950
461970,950
462020,950
462071,950
462121,950
462173,949
462223,948
462273,946
462324,948
462374,950
462426,948
462476,946
462526,945
462577,943
462627,942
462679,941
462729,940
462779,940
462830,939
462880,939
462930,940
462982,942
463032,942
463083,943
463133,943
463183,944
463235,946
463285,951
463336,949
463386,950
463436,947
463488,948
463538,948
463589,947
463639,947
463689,947
463740,951
463791,947
463842,946
463892,946
463942,943
463993,942
464044,940
464095,939
464145,939
464195,941
464246,938
464296,939
464348,941
464398,941
464448,942
464499,943
464549,944
464601,947
464651,949
464701,949
464752,950
464802,950
464854,949
464904,949
464954,948
465005,949
465055,948
465105,948
465157,948
465207,947
465258,946
465308,944
465358,942
465410,941
465460,941
465511,940
465561,939
465611,939
465662,938
465713,941
465764,942
465814,942
465864,944
465915,945
465966,946
466017,947
466067,950
466117,949
466168,950
466219,949
466270,949
466320,948
466370,948
466421,948
466471,949
466523,950
466573,948
466623,947
466674,946
466724,945
466776,943
466826,942
466876,940
466927,940
466977,940
467028,939
467079,941
467129,942
467180,943
467230,942
467281,945
467332,946
467382,947
467433,950
467483,950
467533,950
467585,950
467635,950
467686,948
467736,950
467786,948
467837,948
467888,948
467939,948
467989,946
468039,945
468090,944
468141,943
468192,943
468242,940
468292,939
468343,939
468393,938
468445,939
468495,941
468545,940
468596,942
468646,944
468698,944
468748,946
468798,947
468849,949
468899,948
468951,949
469001,949
469051,948
469102,948
469152,947
469203,947
469254,948
469304,950
469355,948
469405,946
469456,945
469507,944
469557,944
469608,942
469658,940
469709,940
469760,939
469810,941
469861,942
469911,942
469962,943
470012,944
470063,945
470114,946
470164,949
470214,949
470265,950
470316,950
470367,951
470417,949
470467,949
470518,948
470568,948
470620,948
470670,948
470720,948
470771,946
470821,944
470873,942
470923,941
470974,940
471024,940
471074,939
471126,939
471176,941
471226,941
471277,943
471327,941
471378,943
471429,944
471479,946
471530,948
471580,949
471631,950
471682,950
471732,950
471783,949
471833,948
471884,948
471934,948
471985,949
472036,948
472086,948
472137,946
472187,946
472238,942
472289,941
472339,940
472390,940
472440,939
472491,938
472542,939
472592,940
472643,942
472693,943
472743,944
472795,944
472845,946
472896,947
472946,948
472996,951
473048,950
473098,949
473149,950
473199,949
473249,948
473300,947
473351,948
473402,948
473452,948
473502,946
473553,947
473604,943
473655,942
473705,943
473755,940
473806,940
473857,938
473908,940
473958,940
474008,943
474059,942
474109,942
474161,944
474211,946
474261,948
474312,949
474362,951
474414,950
474464,951
474514,949
474565,949
474615,949
474667,947
474717,948
474767,947
474818,950
474868,947
474919,945
474970,943
475020,942
475071,940
475121,940
475172,939
475223,939
475273,938
475324,939
475374,942
475424,941
475475,942
475526,943
475577,945
475627,947
475677,947
475728,949
475779,949
475830,952
475880,949
475930,948
475981,948
476032,946
476083,947
476133,948
476183,948
476234,946
476284,948
476336,943
476386,942
476436,941
476487,940
476537,939
476589,938
476639,939
476689,938
476740,943
476790,941
476841,942
476892,944
476942,945
476993,947
477043,948
477094,950
477145,950
477195,951
477246,950
477296,949
477347,949
477398,948
477448,949
477499,949
477549,949
477600,948
477650,947
477701,945
477752,943
477802,942
477853,941
477903,941
477954,940
478005,941
478055,940
478106,941
478156,941
478206,942
478258,944
478308,945
478359,947
478409,948
478459,950
478511,950
478561,950
478612,950
478662,949
478712,950
478764,948
478814,948
478865,948
478915,949
478965,947
479016,945
479067,944
479118,942
479168,941
479218,940
479269,940
479320,940
479371,938
479421,939
479471,940
479522,941
479572,941
479624,944
479674,943
479724,948
479775,947
479825,948
479877,948
479927,949
479977,949
480028,948
480078,948
480130,947
480180,948
480230,948
480281,948
480331,948
480382,947
480433,947
480483,946
480534,945
480584,943
480635,943
480686,942
480736,941
480787,941
480837,942
480888,943
480939,942
480989,942
481040,944
481090,946
481141,947
481191,950
481242,949
481293,949
481343,949
481394,949
481444,948
481495,946
481546,948
481596,948
481646,950
481697,949
481747,946
481799,945
481849,943
481899,942
481950,941
482000,941
482052,940
482102,941
482152,939
482203,940
482253,941
482305,942
482355,943
482405,944
482456,945
482506,947
482557,951
482608,950
482658,949
482709,949
482759,949
482810,950
482861,948
482911,949
482962,948
483012,951
483063,948
483113,947
483164,946
483215,944
483265,942
483316,941
483366,940
483417,938
483468,940
483518,939
483569,940
483619,941
483670,943
483721,943
483771,943
483822,944
483872,946
483922,951
483974,949
484024,949
484074,950
484125,950
484175,948
484227,949
484277,948
484327,948
484378,948
484428,949
484480,947
484530,946
484580,944
484631,943
484681,941
484732,940
484783,940
484833,941
484884,939
484934,939
484985,941
485036,942
485086,943
485137,942
485187,946
485238,946
485288,948
485339,949
485390,950
485440,950
485491,950
485541,949
485592,949
485643,948
485693,947
485744,947
485794,949
485844,948
485896,946
485946,944
485997,943
486047,941
486097,941
486149,938
486199,938
486250,938
486300,938
486350,940
486402,941
486452,941
486503,941
486553,944
486603,945
486654,947
486705,948
486756,949
486806,949
486856,949
486907,950
486958,948
487009,948
487059,947
487109,947
487160,947
487211,947
487262,946
487312,945
487362,943
487413,941
487463,940
487514,939
487565,938
487615,937
487666,937
487716,938
487767,940
487818,941
487868,940
487919,945
487969,945
488019,947
488071,949
488121,950
488172,950
488222,951
488272,950
488324,949
488374,952
488425,948
488475,948
488525,948
488577,949
488627,948
488678,947
488728,946
488778,943
488829,944
488880,942
488931,941
488981,940
489031,940
489082,941
489133,942
489184,943
489234,943
489284,943
489335,945
489385,946
489437,949
489487,950
489537,950
489588,950
489638,952
489690,949
489740,949
489790,948
489841,947
489891,948
489943,949
489993,947
490043,946
490094,944
490144,942
490195,941
490246,941
490296,940
490347,940
490397,938
490448,939
490499,940
490549,941
490600,941
490650,942
490701,943
490752,944
490802,947
490853,948
490903,950
490953,949
491004,951
491055,949
491106,949
491156,949
491207,947
491257,949
491308,949
491359,950
491409,951
491460,962
491510,991
491560,1023
491612,1023
491662,1023
491713,1023
491763,1023
491814,1023
491865,1023
491915,1023
491966,1023
492016,1022
492067,1020
492118,1011
492169,1004
492219,997
492270,990
492320,977
492370,968
492422,957
492472,955
492522,955
492573,957
492623,956
492675,956
492725,955
492775,952
492826,952
492876,950
492928,949
492978,948
493028,947
493079,946
493129,945
493180,945
493231,947
493281,948
493332,946
493382,947
493433,948
493484,949
493534,950
493585,950
493635,951
493686,949
493736,950
493787,944
493838,942
493888,942
493939,943
493989,947
494040,946
494091,947
494141,954
494192,962
494242,962
494292,963
494344,970
494394,978
494445,986
494495,982
494545,964
494597,946
494647,939
494698,938
494748,940
494798,944
494850,946
494900,948
494950,950
495001,950
495051,949
495102,952
495153,950
495203,948
495254,948
495304,947
495355,948
495406,948
495456,946
495507,946
495557,944
495608,942
495659,941
495709,940
495760,938
495810,938
495861,938
495911,939
495962,940
496013,940
496063,940
496114,941
496164,942
496215,943
496266,945
496316,946
496367,948
496417,948
496467,948
496519,948
496569,947
496620,947
496670,946
496720,947
496772,948
496822,947
496873,946
496923,945
496973,943
497025,941
497075,941
497126,940
497176,940
497226,938
497277,939
497328,939
497379,940
497429,940
497479,941
497530,942
497581,942
497632,944
497682,945
497732,948
497783,948
497833,948
497884,948
497935,947
497985,947
498036,946
498086,946
498137,947
498188,948
498238,946
498289,945
498339,944
498390,942
498441,942
498491,941
498542,940
498592,939
498642,940
498694,939
498744,941
498795,943
498845,942
498895,943
498947,943
498997,945
499048,946
499098,950
499148,949
499200,949
499250,949
499301,949
499351,949
499401,947
499452,947
499503,946
499554,949
499604,947
499654,946
499705,945
499756,943
499807,941
499857,940
499907,940
499958,939
500008,940
500060,938
500110,938
500160,939
500211,941
500261,941
500312,942
500363,944
500413,944
500464,948
500514,948
500564,949
500616,950
500666,949
500717,949
500767,947
500817,948
500869,947
500919,947
500970,947
501020,946
501070,944
501122,944
501172,943
501223,941
501273,940
501323,939
501374,940
501425,938
501476,938
501526,940
501576,941
501627,942
501678,941
501729,944
501779,945
501829,949
501880,948
501931,949
501982,949
502032,950
502082,949
502133,949
502183,949
502235,948
502285,948
502335,948
502386,948
502436,947
502488,945
502538,944
502588,942
502639,941
502689,940
502740,939
502791,938
502841,939
502892,940
502942,942
502993,942
503044,942
503094,944
503145,944
503195,948
503246,947
503297,949
503347,949
503398,949
503448,949
503499,948
503549,948
503600,947
503651,946
503701,947
503752,948
503802,947
503853,945
503904,944
503954,942
504005,942
504055,940
504105,939
504157,938
504207,939
504258,937
504308,940
504358,941
504410,941
504460,942
504511,943
504561,945
504611,947
504663,948
504713,948
504764,949
504814,949
504864,948
504915,946
504966,947
505016,948
505067,948
505117,947
505168,948
505219,946
505269,945
505320,943
505370,943
505421,941
505472,940
505522,939
505573,940
505623,939
505674,940
505724,942
505775,942
505826,942
505876,944
505927,946
505977,947
506028,949
506079,949
506129,950
506180,951
506230,949
506280,949
506332,948
506382,948
506433,948
506483,947
506533,948
506585,946
506635,945
506686,943
506736,944
506786,940
506838,940
506888,938
506939,939
506989,939
507039,940
507090,942
507141,941
507192,945
507242,943
507292,945
507343,947
507394,946
507445,948
507495,948
507545,949
507596,949
507646,948
507698,947
507748,947
507798,947
507849,947
507899,948
507951,946
508001,946
508051,943
508102,944
508152,941
508204,940
508254,939
508304,939
508355,938
508405,940
508456,941
508507,941
508557,944
508608,943
508658,946
508709,946
508760,949
508810,951
508861,951
508911,950
508962,949
509012,949
509063,948
509114,948
509164,948
509215,948
509265,949
509316,948
509367,947
509417,944
509468,942
509518,942
509569,940
509620,940
509670,939
509721,940
509771,940
509821,943
509873,941
509923,942
509974,943
510024,944
510074,946
510126,948
510176,949
510227,949
510277,950
510327,949
510379,948
510429,949
510480,948
510530,948
510580,948
510631,948
510682,947
510733,945
510783,943
510833,942
510884,941
510935,940
510986,939
511036,938
511086,939
511137,939
511187,942
511239,941
511289,942
511339,943
511390,945
511440,948
511492,948
511542,951
511592,950
511643,950
511693,949
511745,948
511795,948
511845,947
511896,948
511946,947
511997,948
512048,945
512098,947
512149,943
512199,941
512250,941
512301,940
512351,939
512402,938
512452,938
512503,939
512553,943
512604,941
512655,942
512705,943
512756,945
512806,947
512857,948
512908,949
512958,949
513009,952
513059,950
513110,948
513161,948
513211,947
513262,948
513312,948
513362,947
513414,947
513464,948
513515,943
513565,942
513615,941
513667,940
513717,940
513767,939
513818,940
513868,940
513920,941
513970,942
514020,942
514071,943
514121,945
514172,946
514223,948
514273,949
514324,950
514374,950
514425,950
514476,949
514526,949
514577,948
514627,948
514678,948
514728,949
514779,945
514830,946
514880,944
514931,942
514981,941
515032,941
515083,940
515133,939
515184,938
515234,938
515284,941
515336,941
515386,942
515437,943
515487,944
515537,946
515589,947
515639,950
515689,949
515740,949
515790,949
515842,948
515892,948
515942,947
515993,947
516043,948
516094,947
516145,947
516195,945
516246,944
516296,941
516347,941
516398,940
516448,940
516499,939
516549,940
516600,938
516651,941
516701,941
516752,943
516802,943
516853,945
516903,947
516954,948
517005,951
517055,950
517106,949
517156,949
517207,949
517258,949
517308,948
517359,949
517409,949
517459,950
517511,947
517561,945
517612,944
517662,942
517712,940
517764,940
517814,940
517864,939
517915,941
517965,938
518017,941
518067,941
518117,943
518168,943
518218,944
518269,945
518320,947
518370,948
518421,948
518471,949
518522,950
518573,949
518623,948
518674,947
518724,948
518775,948
518825,951
518876,947
518927,945
518977,945
519028,942
519078,942
519129,939
519180,941
519230,939
519281,939
519331,939
519382,940
519433,941
519483,941
519534,943
519584,944
519634,946
519686,947
519736,950
519786,949
519837,950
519887,949
519939,949
519989,950
520039,949
520090,947
520140,948
520192,948
520242,948
520292,946
520343,945
520393,943
520444,941
520495,940
520545,941
520596,939
520646,939
520697,939
520748,941
520798,941
520849,941
520899,942
520950,943
521000,945
521051,945
521102,948
521152,951
521203,949
521253,950
521304,949
521355,949
521405,948
521456,949
521506,948
521556,948
521608,947
521658,945
521709,944
521759,943
521809,942
521861,940
521911,940
521961,938
522012,938
522062,938
522114,939
522164,941
522214,941
522265,943
522315,943
522366,945
522417,947
522467,949
522518,950
522568,950
522619,950
522670,949
522720,949
522771,948
522821,950
522872,948
522923,948
522973,947
523024,947
523074,946
523125,943
523175,943
523226,942
523277,940
523327,940
523378,939
523428,939
523479,939
523530,942
523580,942
523631,943
523681,944
523731,948
523783,947
523833,949
523883,950
523934,950
523984,950
524036,950
524086,950
524136,947
524187,950
524237,948
524289,948
524339,948
524389,946
524440,946
524490,944
524541,943
524592,942
524642,942
524693,940
524743,940
524794,939
524845,941
524895,942
524946,942
524996,942
525047,944
525097,945
525148,947
525199,949
525249,950
525300,949
525350,950
525401,949
525452,949
525502,948
525553,947
525603,949
525654,947
525705,948
525755,947
525806,945
525856,943
525906,942
525958,941
526008,939
526058,939
526109,938
526159,938
526211,940
526261,942
526311,941
526362,941
526412,944
526464,944
526514,946
526564,948
526615,949
526665,949
526716,950
526767,949
526817,950
526868,948
526918,948
526969,948
527020,948
527070,948
527121,947
527171,944
527222,942
527272,944
527323,941
527374,940
527424,939
527475,939
527525,939
527576,940
527627,941
527677,941
527728,945
527778,943
527828,945
527880,946
527930,948
527981,949
528031,949
528081,951
528133,950
528183,949
528233,948
528284,948
528334,948
528386,948
528436,948
528486,947
528537,946
528587,942
528638,942
528689,941
528739,940
528790,939
528840,939
528891,940
528942,941
528992,942
529043,942
529093,943
529144,944
529195,946
529245,948
529296,949
529346,950
529397,950
529447,950
529498,949
529549,949
529599,948
529650,947
529700,947
529751,947
529802,947
529852,946
529903,945
529953,943
530003,941
530055,940
530105,939
530155,939
530206,939
530256,939
530308,940
530358,943
530408,942
530459,942
530509,944
530561,945
530611,947
530661,949
530712,949
530762,950
530813,949
530864,949
530914,949
530965,949
531015,947
531066,948
531117,948
531167,948
531218,946
531268,945
531319,943
531369,942
531420,940
531471,940
531521,940
531572,940
531622,940
531673,940
531724,943
531774,942
531825,943
531875,944
531926,946
531977,948
532027,947
532078,949
532128,949
532178,949
532230,949
532280,947
532331,947
532381,947
532431,948
532483,947
532533,947
532584,945
532634,943
532684,942
532736,941
532786,940
532837,940
532887,940
532937,938
532988,940
533039,942
533090,943
533140,942
533190,944
533241,945
533292,947
533343,948
533393,949
533443,949
533494,949
533544,951
533595,948
533646,948
533696,948
533747,948
533797,949
533848,948
533899,948
533949,945
534000,945
534050,942
534100,941
534152,940
534202,940
534253,939
534303,938
534353,940
534405,941
534455,943
534506,942
534556,943
534606,944
534658,946
534708,948
534759,949
534809,949
534859,948
534910,951
534961,947
535012,948
535062,948
535112,948
535163,948
535214,947
535265,945
535315,944
535365,941
535416,942
535467,942
535518,941
535568,939
535618,940
535669,940
535719,942
535771,942
535821,942
535871,942
535922,945
535972,946
536024,948
536074,950
536124,949
536175,952
536225,950
536275,949
536327,948
536377,947
536428,947
536478,948
536528,948
536580,945
536630,946
536681,944
536731,942
536781,941
536833,940
536883,940
536934,940
536984,940
537034,940
537085,942
537136,942
537187,942
537237,942
537287,944
537338,947
537389,948
537440,950
537490,950
537540,949
537591,949
537641,948
537693,947
537743,947
537793,949
537844,947
537894,947
537946,946
537996,947
538046,943
538097,942
538147,941
538199,939
538249,940
538299,940
538350,940
538400,941
538451,943
538502,942
538552,943
538603,944
538653,946
538704,948
538755,949
538805,949
538856,949
538906,950
538956,947
539008,948
539058,947
539109,947
539159,947
539209,946
539260,947
539311,945
539362,944
539412,942
539462,940
539513,940
539564,939
539615,940
539665,939
539715,941
539766,941
539816,941
539868,942
539918,943
539968,944
540019,946
540069,948
540121,948
540171,949
540221,949
540272,953
540322,949
540374,949
540424,948
540474,948
540525,949
540575,948
540626,947
540677,944
540727,944
540778,942
540828,941
540879,940
540930,940
540980,940
541031,939
541081,942
541132,942
541182,944
541233,943
541284,944
541334,946
541385,948
541435,949
541486,949
541537,950
541587,950
541637,949
541688,948
541739,948
541790,947
541840,947
541890,948
541941,947
541991,945
542043,943
542093,944
542143,940
542194,939
542244,939
542296,939
542346,940
542396,940
542447,942
542497,941
542548,942
542599,943
542649,944
542700,946
542750,948
542801,949
542852,949
542902,947
542953,949
543003,948
543054,947
543105,948
543155,948
543206,948
543256,948
543307,946
543357,944
543408,943
543459,942
543509,940
543560,939
543610,939
543661,939
543712,939
543762,941
543813,942
543863,942
543913,943
543965,944
544015,946
544066,948
544116,949
544166,950
544218,950
544268,950
544319,948
544369,948
544419,948
544471,948
544521,949
544572,949
544622,947
544672,945
544723,945
544774,942
544825,941
544875,940
544925,938
544976,939
545027,939
545078,941
545128,943
545178,944
545229,943
545280,944
545330,946
545381,947
545431,949
545482,949
545532,950
545583,948
545634,950
545684,949
545735,947
545785,947
545836,948
545887,948
545937,947
545988,946
546038,944
546088,944
546140,942
546190,941
546241,940
546291,939
546341,939
546393,940
546443,941
546494,941
546544,944
546594,942
546646,944
546696,946
546747,948
546797,949
546847,949
546898,950
546949,948
547000,950
547050,948
547100,947
547151,947
547202,947
547253,948
547303,946
547353,945
547404,943
547454,943
547506,940
547556,939
547606,939
547657,938
547707,939
547759,940
547809,943
547859,942
547910,945
547960,945
548012,945
548062,948
548112,949
548163,949
548213,950
548264,949
548315,949
548365,952
548416,949
548466,949
548516,948
548568,949
548618,949
548669,946
548719,945
548769,942
548820,944
548871,940
548922,939
548972,939
549022,938
549073,940
549124,941
549175,942
549225,943
549275,943
549326,945
549377,947
549428,948
549478,950
549528,949
549579,949
549629,948
549681,949
549731,948
549781,946
549832,948
549882,948
549934,946
549984,946
550034,944
550085,943
550135,942
550187,940
550237,939
550287,938
550338,938
550388,939
550439,940
550490,941
550540,940
550591,941
550641,943
550692,944
550743,947
550793,948
550844,948
550894,949
550945,949
550995,948
551046,947
551097,946
551147,945
551198,947
551248,947
551299,945
551350,945
551400,943
551451,943
551501,942
551552,939
551603,940
551653,939
551704,939
551754,940
551804,942
551856,941
551906,943
551957,944
552007,945
552057,945
552109,949
552159,950
552210,950
552260,951
552310,949
552361,949
552412,948
552463,948
552513,949
552563,949
552614,948
552665,947
552716,945
552766,943
552816,944
552867,942
552918,941
552969,940
553019,940
553069,940
553120,942
553170,944
553221,943
553272,944
553322,945
553373,947
553423,949
553474,950
553525,950
553575,949
553626,951
553676,948
553726,951
553778,949
553828,948
553879,948
553929,947
553979,947
554031,945
554081,943
554132,942
554182,943
554232,938
554284,939
554334,937
554385,938
554435,939
554485,941
554536,941
554587,942
554638,944
554688,944
554738,947
554789,949
554840,948
554891,948
554941,949
554991,948
555042,948
555092,947
555144,947
555194,948
555244,948
555295,947
555345,946
555397,944
555447,942
555497,942
555548,942
555598,940
555650,939
555700,939
555750,940
555801,941
555851,941
555902,941
555953,943
556003,944
556054,947
556104,950
556155,949
556206,949
556256,951
556307,950
556357,949
556408,948
556459,948
556509,948
556560,948
556610,948
556661,947
556711,944
556762,942
556813,943
556863,941
556914,940
556964,939
557015,939
557066,939
557116,940
557167,942
557217,942
557267,943
557319,944
557369,945
557420,947
557470,948
557520,949
557572,949
557622,950
557673,950
557723,948
557773,947
557825,948
557875,949
557926,948
557976,947
558026,946
558077,944
558128,942
558179,942
558229,940
558279,939
558330,939
558381,938
558432,939
558482,941
558532,942
558583,942
558633,944
558684,944
558735,946
558785,948
558836,949
558886,949
558937,949
558988,950
559038,948
559089,950
559139,948
559190,948
559241,948
559291,948
559342,948
559392,946
559442,945
559494,942
559544,943
559595,941
559645,940
559695,939
559747,938
559797,940
559848,942
