=~=~=~=~=~=~=~=~=~=~=~= PuTTY log 2026.03.19 15:57:35 =~=~=~=~=~=~=~=~=~=~=~=
24154,936
915
95977,914
96028,915
3
95522,1023
95572,1023
95624,1023
95674,1016
95725,991
95775,960
95825,926
95877,920
95927,915
95977,914
96028,915
3
95522,1023
95572,1023
95624,1023
95674,1016
95725,991
95775,960
95825,926
95877,920
95927,915
95977,914
96028,915
timestamp,emg
0,941
50,938
100,938
150,938
201,938
251,940
302,941
352,944
403,944
453,945
503,947
553,949
605,952
655,952
705,955
755,966
806,987
857,1009
907,1023
958,1023
1008,1023
1058,1023
1110,1023
1160,1023
1210,1023
1261,1023
1311,1023
1361,1023
1413,1023
1463,1023
1513,1023
1564,1023
1614,1003
1665,975
1716,949
1766,942
1816,941
1867,942
1917,940
1968,942
2019,944
2069,945
2119,946
2170,947
2221,949
2271,951
2321,954
2372,958
2422,980
2472,1005
2524,1023
2574,1023
2625,1023
2675,1023
2725,1023
2777,1023
2827,1023
2877,1023
2928,1023
2978,1023
3028,1023
3080,1023
3130,1023
3180,1023
3231,998
3281,974
3332,947
3383,943
3433,941
3483,942
3534,940
3585,943
3635,943
3686,945
3736,946
3786,947
3837,949
3888,951
3938,953
3988,960
4039,982
4089,1005
4140,1023
4191,1023
4241,1023
4292,1023
4342,1023
4392,1023
4444,1023
4494,1023
4544,1023
4595,1023
4645,1023
4696,1023
4747,1023
4797,1022
4847,996
4898,972
4948,947
4999,942
5050,940
5100,943
5150,941
5201,943
5252,945
5302,945
5353,946
5403,948
5453,949
5504,951
5555,954
5605,961
5655,983
5706,1009
5756,1023
5807,1023
5858,1023
5908,1023
5959,1023
6009,1023
6060,1023
6111,1023
6161,1023
6211,1023
6262,1023
6312,1023
6363,1023
6414,1021
6464,995
6514,969
6565,946
6616,941
6666,942
6717,941
6767,941
6817,943
6868,945
6919,944
6969,947
7020,947
7070,950
7120,951
7171,955
7222,962
7272,984
7322,1009
7373,1023
7424,1023
7474,1023
7525,1023
7575,1023
7626,1023
7676,1023
7727,1023
7778,1023
7828,1023
7878,1023
7929,1023
7980,1023
8030,1021
8081,993
8131,967
8181,945
8232,941
8283,937
8333,942
8384,941
8434,943
8484,945
8536,944
8586,946
8636,947
8686,951
8737,951
8787,954
8838,963
8889,987
8939,1011
8989,1023
9040,1023
9091,1023
9141,1023
9192,1023
9242,1023
9293,1023
9344,1023
9394,1023
9445,1023
9495,1023
9545,1023
9596,1023
9647,1020
9697,994
9748,967
9798,946
9848,942
9900,939
9950,942
10000,940
10051,943
10101,946
10151,945
10203,947
10253,949
10303,951
10354,953
10404,960
10455,984
10506,1011
10556,1023
10607,1023
10657,1023
10707,1023
10759,1023
10809,1023
10860,1023
10910,1023
10960,1023
11012,1023
11062,1023
11113,1023
11163,1022
11213,992
11265,962
11315,945
11365,942
11416,942
11466,939
11517,942
11568,943
11618,945
11669,945
11719,948
11769,952
11821,952
11871,956
11921,971
11972,997
12022,1022
12072,1023
12124,1023
12174,1023
12225,1023
12275,1023
12325,1023
12377,1023
12427,1023
12478,1023
12528,1023
12578,1023
12630,1023
12680,1007
12731,978
12781,948
12831,942
12882,941
12933,941
12983,941
13034,943
13084,946
13135,945
13186,946
13236,949
13287,950
13337,953
13387,959
13438,985
13489,1010
13539,1023
13590,1023
13640,1023
13691,1023
13742,1023
13792,1023
13843,1023
13893,1023
13944,1023
13995,1023
14045,1023
14096,1023
14146,1022
14197,992
14247,964
14298,944
14349,942
14399,942
14449,942
14500,939
14551,944
14601,945
14652,945
14702,947
14752,948
14803,952
14854,952
14905,970
14955,994
15005,1022
15056,1023
15107,1023
15157,1023
15208,1023
15258,1023
15309,1023
15360,1023
15410,1023
15461,1023
15511,1023
15562,1023
15612,1023
15663,1009
15714,979
15764,949
15815,942
15865,942
15916,941
15967,943
16017,942
16067,944
16118,944
16168,946
16219,948
16270,950
16320,953
16370,958
16421,979
16472,1007
16523,1023
16573,1023
16623,1023
16674,1023
16724,1023
16776,1023
16826,1023
16876,1023
16927,1023
16977,1023
17029,1023
17079,1023
17129,1023
17180,995
17230,967
17281,944
17332,941
17382,941
17433,942
17483,943
17533,942
17585,946
17635,945
17685,945
17736,949
17786,951
17837,955
17888,967
17938,993
17988,1019
18039,1023
18089,1023
18141,1023
18191,1023
18241,1023
18292,1023
18342,1023
18394,1023
18444,1023
18494,1023
18545,1023
18595,1023
18647,1012
18697,983
18747,953
18798,943
18848,941
18898,941
18950,941
19000,942
19050,944
19101,945
19151,946
19203,949
19253,950
19303,953
19354,956
19404,976
19454,1004
19506,1023
19556,1023
19606,1023
19657,1023
19707,1023
19759,1023
19809,1023
19859,1023
19910,1023
19960,1023
20012,1023
20062,1023
20112,1023
20163,997
20213,969
20264,945
20315,940
20365,942
20416,941
20466,943
20516,942
20568,945
20618,945
20668,946
20719,949
20769,952
20819,954
20871,963
20921,988
20972,1011
21022,1023
21072,1023
21124,1023
21174,1023
21225,1023
21275,1023
21325,1023
21377,1023
21427,1023
21478,1023
21528,1023
21578,1023
21629,1020
21680,990
21730,961
21781,942
21831,941
21882,940
21933,942
21983,941
22034,944
22084,944
22134,945
22185,948
22236,950
22286,950
22337,955
22387,971
22437,995
22489,1023
22539,1023
22590,1023
22640,1023
22690,1023
22742,1023
22792,1023
22843,1023
22893,1023
22943,1023
22994,1023
23045,1023
23096,1023
23146,1010
23196,982
23247,950
23298,942
23348,940
23399,942
23449,943
23500,942
23550,945
23601,944
23652,949
23702,947
23752,950
23803,952
23854,957
23904,978
23955,1007
24005,1023
24055,1023
24107,1023
24157,1023
24208,1023
24258,1023
24308,1023
24359,1023
24410,1023
24461,1023
24511,1023
24561,1023
24612,1023
24663,999
24714,971
24764,946
24814,941
24865,942
24915,941
24966,942
25017,944
25067,944
25117,945
25168,948
25219,949
25270,949
25320,954
25370,962
25421,989
25472,1011
25522,1023
25573,1023
25623,1023
25674,1023
25724,1023
25775,1023
25826,1023
25876,1023
25927,1023
25977,1023
26028,1023
26079,1023
26129,1021
26180,991
26230,961
26280,944
26332,941
26382,942
26432,942
26483,942
26533,945
26584,943
26635,943
26685,948
26735,949
26786,952
26836,954
26888,971
26938,994
26988,1021
27039,1023
27089,1023
27140,1023
27191,1023
27241,1023
27292,1023
27342,1023
27393,1023
27444,1023
27494,1023
27545,1023
27595,1023
27645,1011
27697,982
27747,951
27798,943
27848,940
27898,942
27950,941
28000,941
28050,944
28101,946
28151,946
28201,948
28253,951
28303,952
28353,958
28404,978
28454,1004
28505,1023
28556,1023
28606,1023
28657,1023
28707,1023
28759,1023
28809,1023
28859,1023
28910,1023
28960,1023
29011,1023
29062,1023
29112,1023
29163,999
29213,972
29263,946
29315,941
29365,943
29415,942
29466,941
29516,943
29568,944
29618,944
29668,947
29719,950
29769,950
29819,955
29871,963
29921,990
29971,1015
30022,1023
30072,1023
30124,1023
30174,1023
30224,1023
30275,1023
30325,1023
30376,1023
30427,1023
30477,1023
30528,1023
30578,1023
30629,1018
30680,986
30730,956
30781,942
30831,940
30881,940
30932,941
30983,944
31033,943
31084,946
31134,945
31185,950
31236,949
31286,953
31337,956
31387,975
31437,1002
31489,1023
31539,1023
31589,1023
31640,1023
31690,1023
31741,1023
31792,1023
31842,1023
31893,1023
31943,1023
31994,1023
32045,1023
32095,1023
32146,1001
32196,970
32247,944
32297,942
32348,940
32399,939
32449,941
32499,943
32550,945
32601,944
32651,948
32702,949
32752,952
32803,953
32854,963
32904,990
32955,1016
33005,1023
33055,1023
33106,1023
33157,1023
33208,1023
33258,1023
33308,1023
33359,1023
33410,1023
33461,1023
33511,1023
33561,1023
33612,1012
33662,984
33714,953
33764,942
33814,939
33865,942
33915,941
33966,942
34017,944
34067,944
34117,946
34168,948
34219,951
34269,949
34320,958
34370,978
34420,1006
34471,1023
34522,1023
34573,1023
34623,1023
34673,1023
34724,1023
34775,1023
34826,1023
34876,1023
34926,1023
34977,1023
35027,1023
35079,1023
35129,995
35179,967
35230,945
35280,941
35332,941
35382,942
35432,940
35483,943
35533,946
35584,946
35635,948
35685,949
35735,950
35786,954
35836,969
35887,994
35938,1022
35988,1023
36039,1023
36089,1023
36140,1023
36191,1023
36241,1023
36292,1023
36342,1023
36392,1023
36444,1023
36494,1023
36545,1023
36595,1008
36645,978
36697,949
36747,938
36797,942
36848,940
36898,941
36948,942
37000,945
37050,946
37101,946
37151,949
37201,950
37253,954
37303,959
37353,982
37404,1011
37454,1023
37505,1023
37556,1023
37606,1023
37657,1023
37707,1023
37757,1023
37809,1023
37859,1023
37910,1023
37960,1023
38010,1023
38062,1022
38112,991
38163,961
38213,943
38263,940
38315,940
38365,944
38415,939
38466,944
38516,945
38566,946
38618,948
38668,949
38718,952
38769,955
38819,975
38871,998
38921,1023
38971,1023
39022,1023
39072,1023
39123,1023
39174,1023
39224,1023
39275,1023
39325,1023
39376,1023
39427,1023
39477,1023
39528,1023
39578,1003
39629,971
39680,946
39730,941
39781,940
39831,940
39881,942
39932,943
39983,945
40033,944
40084,949
40134,948
40184,950
40236,954
40286,963
40336,990
40387,1017
40437,1023
40488,1023
40539,1023
40589,1023
40640,1023
40690,1023
40741,1023
40792,1023
40842,1023
40893,1023
40943,1023
40994,1023
41044,1015
41095,984
41146,955
41196,942
41246,940
41297,940
41348,941
41399,941
41449,946
41499,945
41550,946
41601,948
41651,949
41702,952
41752,956
41802,977
41853,1003
41904,1023
41955,1023
42005,1023
42055,1023
42106,1023
42157,1023
42208,1023
42258,1023
42308,1023
42359,1023
42409,1023
42461,1023
42511,1023
42561,999
42612,970
42662,945
42713,934
42764,935
42814,937
42864,939
42915,942
42966,943
43017,945
43067,946
43117,948
43168,950
43218,952
43269,964
43320,990
43370,1015
43420,1023
43471,1023
43522,1023
43573,1023
43623,1023
43673,1023
43724,1023
43774,1023
43826,1023
43876,1023
43926,1023
43977,1023
44027,1015
44079,988
44129,954
44179,942
44230,941
44280,940
44331,940
44382,942
44432,944
44482,945
44533,945
44583,947
44634,949
44685,954
44735,956
44786,976
44836,1003
44887,1023
44938,1023
44988,1023
45038,1023
45089,1023
45139,1023
45191,1023
45241,1023
45291,1023
45342,1023
45392,1023
45444,1023
45494,1023
45545,999
45595,971
45645,946
45697,941
45747,942
45797,940
45848,940
45898,944
45948,946
46000,945
46050,947
46100,947
46151,951
46201,953
46252,963
46303,991
46353,1018
46404,1023
46454,1023
46504,1023
46556,1023
46606,1023
46657,1023
46707,1023
46757,1023
46809,1023
46859,1023
46910,1023
46960,1023
47010,1014
47062,985
47112,955
47162,941
47213,942
47263,941
47314,942
47365,1023
47415,1023
47466,1023
47516,1023
47566,1023
47618,1023
47668,1023
47719,1023
47769,989
47819,958
47870,941
47921,938
47972,938
48022,937
48072,935
48123,937
48174,938
48224,938
48275,942
48325,944
48375,945
48427,948
48477,959
48527,993
48578,1023
48628,1023
48679,1023
48730,1023
48780,1023
48831,1023
48881,1023
48932,1023
48983,1023
49033,1023
49084,1023
49134,1023
49185,1023
49235,1013
49286,974
49337,943
49387,938
49437,937
49488,938
49539,938
49589,937
49640,937
49690,939
49741,940
49792,945
49842,946
49893,947
49943,951
49993,976
50044,1011
50095,1023
50145,1023
50196,1023
50246,1023
50297,1023
50348,1023
50398,1023
50449,1023
50499,1023
50550,1023
50600,1023
50651,1023
50702,1023
50752,989
50803,956
50853,939
50904,938
50955,938
51005,939
51055,937
51106,938
51156,940
51207,938
51258,942
51308,945
51358,946
51409,950
51460,959
51511,992
51561,1023
51611,1023
51662,1023
51713,1023
51764,1023
51814,1023
51864,1023
51915,1023
51965,1023
52017,1023
52067,1023
52117,1023
52168,1023
52218,1010
52270,973
52320,942
52370,939
52421,937
52471,939
52521,938
52573,939
52623,938
52673,939
52724,940
52774,943
52825,947
52876,949
52926,951
52976,978
53027,1011
53078,1023
53129,1023
53179,1023
53229,1023
53280,1023
53330,1023
53382,1023
53432,1023
53482,1023
53533,1023
53583,1023
53635,1023
53685,1023
53735,990
53786,956
53836,941
53886,936
53938,939
53988,938
54039,938
54089,939
54139,940
54191,939
54241,944
54291,944
54342,948
54392,950
54443,957
54494,995
54544,1023
54594,1023
54645,1023
54695,1023
54747,1023
54797,1023
54847,1023
54898,1023
54948,1023
55000,1023
55050,1023
55100,1023
55151,1023
55201,1014
55252,975
55303,946
55353,935
55404,939
55454,937
55504,938
55556,937
55606,940
55656,939
55707,941
55757,943
55809,947
55859,948
55909,951
55960,974
56010,1007
56060,1023
56112,1023
56162,1023
56213,1023
56263,1023
56313,1023
56365,1023
56415,1023
56466,1023
56516,1023
56566,1023
56617,1023
56668,1023
56719,995
56769,961
56819,941
56870,939
56921,936
56971,938
57022,937
57072,940
57122,938
57174,941
57224,942
57274,943
57325,946
57375,948
57426,955
57477,988
57527,1023
57578,1023
57628,1023
57678,1023
57730,1023
57780,1023
57831,1023
57881,1023
57931,1023
57982,1023
58033,1023
58084,1023
58134,1023
58184,1021
58235,982
58286,949
58337,940
58387,935
58437,939
58488,938
58539,940
58589,939
58640,940
58690,940
58740,943
58791,946
58842,947
58892,950
58943,968
58993,1002
59043,1023
59095,1023
59145,1023
59196,1023
59246,1023
59297,1023
59347,1023
59398,1023
59449,1023
59499,1023
59550,1023
59600,1023
59651,1023
59702,1001
59752,967
59802,943
59853,936
59904,938
59955,937
60005,938
60055,938
60106,938
60156,939
60207,941
60258,944
60308,946
60358,950
60409,954
60460,984
60510,1018
60561,1023
60611,1023
60662,1023
60712,1023
60763,1023
60814,1023
60864,1023
60915,1023
60965,1023
61016,1023
61067,1023
61117,1023
61168,1023
61218,984
61268,951
61320,940
61370,939
61420,938
61471,940
61521,936
61572,937
61623,939
61673,940
61724,944
61774,944
61825,949
61876,950
61926,968
61976,1004
62027,1023
62077,1023
62129,1023
62179,1023
62229,1023
62280,1023
62330,1023
62382,1023
62432,1023
62482,1023
62533,1023
62583,1023
62635,1023
62685,997
62735,962
62786,942
62836,938
62886,937
62938,939
62988,938
63038,938
63089,939
63139,940
63190,942
63241,943
63291,947
63342,948
63392,956
63442,992
63494,1023
63544,1023
63594,1023
63645,1023
63695,1023
63747,1023
63797,1023
63847,1023
63898,1023
63948,1023
64000,1023
64050,1023
64100,1023
64151,1015
64201,976
64252,949
64303,939
64353,938
64404,939
64454,937
64504,939
64556,939
64606,939
64656,940
64707,943
64757,946
64807,947
64859,952
64909,976
64959,1014
65010,1023
65060,1023
65112,1023
65162,1023
65212,1023
65263,1023
65313,1023
65364,1023
65415,1023
65465,1023
65516,1023
65566,1023
65617,1023
65668,985
65718,952
65769,941
65819,938
65870,939
65921,938
65971,939
66022,939
66072,941
66122,940
66173,943
66224,945
66274,947
66325,951
66375,968
66425,1003
66477,1023
66527,1023
66578,1023
66628,1023
66678,1023
66729,1023
66780,1023
66831,1023
66881,1023
66931,1023
66982,1023
67033,1023
67084,1023
67134,997
67184,961
67235,943
67286,938
67336,936
67387,935
67437,939
67487,938
67538,938
67589,939
67640,942
67690,945
67740,946
67791,950
67842,958
67892,993
67943,1023
67993,1023
68043,1023
68094,1023
68145,1023
68196,1023
68246,1023
68296,1023
68347,1023
68398,1023
68449,1023
68499,1023
68549,1023
68600,1008
68651,969
68702,943
68752,940
68802,939
68853,939
68903,939
68954,936
69005,939
69055,939
69105,941
69156,943
69207,946
69257,949
69308,954
69358,983
69409,1020
69459,1023
69510,1023
69561,1023
69611,1023
69662,1023
69712,1023
69763,1023
69814,1023
69864,1023
69915,1023
69965,1023
70016,1023
70067,1016
70117,981
70168,948
70218,940
70268,939
70320,939
70370,938
70420,937
70471,938
70521,938
70572,940
70623,943
70673,943
70723,948
70774,952
70824,976
70875,1010
70926,1023
70976,1023
71027,1023
71077,1023
71128,1023
71179,1023
71229,1023
71280,1023
71330,1023
71380,1023
71432,1023
71482,1023
71533,1023
71583,987
71633,954
71685,941
71735,938
71785,940
71836,939
71886,938
71938,938
71988,940
72038,941
72089,943
72139,946
72189,947
72241,951
72291,967
72341,1003
72392,1023
72442,1023
72494,1023
72544,1023
72594,1023
72645,1023
72695,1023
72747,1023
72797,1023
72847,1023
72898,1023
72948,1023
72999,1023
73050,996
73100,962
73151,942
73201,939
73251,939
73303,939
73353,938
73403,938
73454,938
73504,939
73554,943
73606,945
73656,947
73707,950
73757,960
73807,998
73859,1023
73909,1023
73959,1023
74010,1023
74060,1023
74112,1023
74162,1023
74212,1023
74263,1023
74313,1023
74364,1023
74415,1023
74465,1023
74516,1002
74566,965
74617,945
74668,938
74718,939
74769,938
74819,938
74869,938
74920,937
74971,939
75021,942
75072,947
75122,946
75172,949
75224,958
75274,994
75325,1023
75375,1023
75425,1023
75476,1023
75527,1023
75578,1023
75628,1023
75678,1023
75729,1023
75780,1023
75831,1023
75881,1023
75931,1023
75982,1002
76033,963
76083,942
76134,938
76184,937
76235,938
76285,938
76336,939
76387,938
76437,938
76487,941
76538,944
76589,946
76639,950
76690,958
76740,994
76790,1023
76841,1023
76892,1023
76943,1023
76993,1023
77043,1023
77094,1023
77145,1023
77196,1023
77246,1023
77296,1023
77347,1023
77398,1023
77449,1005
77499,966
77549,943
77600,938
77650,938
77701,938
77752,939
77802,939
77853,938
77903,939
77954,941
78005,945
78055,946
78105,949
78156,958
78206,996
78257,1023
78308,1023
78358,1023
78409,1023
78459,1023
78510,1023
78561,1023
78611,1023
78662,1023
78712,1023
78763,1023
78814,1023
78864,1023
78915,998
78965,965
79015,944
79067,934
79117,940
79167,938
79218,939
79268,938
79319,940
79370,940
79420,943
79470,944
79521,948
79571,950
79622,963
79673,998
79723,1023
79774,1023
79824,1023
79875,1023
79926,1023
79976,1023
80027,1023
80077,1023
80128,1023
80179,1023
80229,1023
80280,1023
80330,1023
80380,995
80432,961
80482,942
80532,941
80583,939
80633,937
80685,938
80735,938
80785,939
80836,939
80886,944
80936,946
80988,948
81038,947
81088,967
81139,1003
81189,1023
81241,1023
81291,1023
81341,1023
81392,1023
81442,1023
81494,1023
81544,1023
81594,1023
81645,1023
81695,1023
81746,1023
81797,1023
81847,986
81898,953
81948,941
81998,939
82050,939
82100,939
82150,937
82201,939
82251,940
82302,939
82353,944
82403,946
82454,948
82504,951
82554,979
82606,1014
82656,1023
82706,1023
82757,1023
82807,1023
82859,1023
82909,1023
82959,1023
83010,1023
83060,1023
83111,1023
83162,1023
83212,1023
83263,1016
83313,978
83364,947
83415,939
83465,937
83516,937
83566,936
83616,937
83667,937
83718,939
83768,940
83819,944
83869,945
83919,949
83971,954
84021,984
84072,1022
84122,1023
84172,1023
84224,1023
84274,1023
84325,1023
84375,1023
84425,1023
84476,1023
84527,1023
84578,1023
84628,1023
84678,1023
84729,1009
84780,969
84830,943
84881,939
84931,938
84982,939
85032,939
85083,938
85134,937
85184,940
85234,942
85285,943
85336,947
85386,948
85437,958
85487,994
85537,1023
85588,1023
85639,1023
85690,1023
85740,1023
85790,1023
85841,1023
85892,1023
85943,1023
85993,1023
86043,1023
86094,1023
86145,1023
86196,998
86246,966
86296,941
86347,939
86397,938
86448,938
86499,938
86549,939
86599,938
86650,941
86701,941
86752,946
86802,949
86852,951
86903,963
86953,1000
87004,1023
87055,1023
87105,1023
87156,1023
87206,1023
87257,1023
87308,1023
87358,1023
87409,1023
87459,1023
87510,1023
87561,1023
87611,1023
87662,989
87712,953
87762,940
87814,938
87864,939
87914,939
87965,940
88015,938
88066,938
88117,939
88167,944
88217,945
88268,948
88318,952
88369,976
88420,1012
88470,1023
88521,1023
88571,1023
88622,1023
88673,1023
88723,1023
88774,1023
88824,1023
88875,1023
88926,1023
88976,1023
89027,1023
89077,1018
89127,977
89179,946
89229,940
89280,938
89330,938
89380,939
89432,937
89482,938
89532,940
89583,940
89633,944
89683,946
89735,949
89785,954
89835,988
89886,1023
89936,1023
89988,1023
90038,1023
90088,1023
90139,1023
90189,1023
90241,1023
90291,1023
90341,1023
90392,1023
90442,1023
90493,1023
90544,1000
90594,962
90645,941
90695,939
90745,936
90797,939
90847,937
90897,939
90948,940
90998,941
91049,942
91100,946
91150,948
91201,951
91251,969
91301,1006
91353,1023
91403,1023
91453,1023
91504,1023
91554,1023
91606,1023
91656,1023
91707,1023
91757,1023
91807,1023
91858,1023
91909,1023
91960,1020
92010,979
92060,947
92111,938
92162,940
92212,938
92263,939
92313,938
92363,939
92414,939
92465,941
92515,944
92566,944
92616,948
92667,954
92718,987
92768,1022
92819,1023
92869,1023
92919,1023
92971,1023
93021,1023
93072,1023
93122,1023
93172,1023
93223,1023
93274,1023
93325,1023
93375,1023
93425,1001
93476,963
93527,941
93578,938
93628,940
93678,938
93729,939
93779,938
93830,938
93881,939
93931,943
93981,944
94032,948
94083,951
94133,969
94184,1006
94234,1023
94285,1023
94336,1023
94386,1023
94437,1023
94487,1023
94538,1023
94588,1023
94639,1023
94690,1023
94740,1023
94791,1023
94841,1020
94892,978
94943,950
94993,939
95043,938
95094,938
95144,939
95195,937
95246,934
95296,939
95347,942
95397,944
95448,947
95499,950
95549,955
95599,990
95650,1023
95700,1023
95751,1023
95802,1023
95852,1023
95903,1023
95953,1023
96004,1023
96055,1023
96105,1023
96156,1023
96206,1023
96257,1023
96308,997
96358,962
96409,940
96459,939
96509,939
96561,938
96611,939
96661,939
96712,941
96762,940
96813,944
96864,945
96914,947
96964,951
97015,971
97065,1009
97117,1023
97167,1023
97217,1023
97268,1023
97318,1023
97370,1023
97420,1023
97470,1023
97521,1023
97571,1023
97623,1023
97673,1023
97723,1018
97774,975
97824,947
97875,939
97926,939
97976,940
98027,938
98077,939
98127,937
98179,940
98229,941
98279,943
98330,946
98380,949
98430,955
98482,992
98532,1023
98582,1023
98633,1023
98683,1023
98735,1023
98785,1023
98835,1023
98886,1023
98936,1023
98988,1023
99038,1023
99089,1023
99139,1023
99189,995
99240,962
99291,941
99341,938
99392,936
99442,940
99492,936
99544,939
99594,940
99644,940
99695,943
99745,945
99796,948
99847,950
99897,972
99948,1008
99998,1023
100048,1023
100100,1023
100150,1023
100201,1023
100251,1023
100302,1023
100353,1023
100404,1023
100454,1023
100504,1023
100555,1023
100605,979
100657,945
100707,939
100758,938
100808,939
100858,937
100910,939
100960,939
101010,940
101061,943
101111,947
101163,949
101213,950
101263,986
101314,1023
101364,1023
101415,1023
101466,1023
101517,1023
101567,1023
101618,1023
101668,1023
101719,1023
101770,1023
101820,1023
101871,1023
101921,1001
101972,962
102023,940
102073,940
102124,939
102174,937
102225,939
102276,937
102326,939
102377,942
102427,944
102478,947
102529,949
102579,966
102630,1006
102680,1023
102731,1023
102781,1023
102833,1023
102883,1023
102934,1023
102984,1023
103034,1023
103086,1023
103136,1023
103187,1023
103237,1022
103288,978
103339,946
103389,940
103440,939
103490,938
103541,939
103591,938
103642,940
103693,939
103743,943
103794,945
103844,949
103895,952
103946,986
103996,1023
104047,1023
104097,1023
104148,1023
104199,1023
104249,1023
104300,1023
104350,1023
104401,1023
104452,1023
104503,1023
104553,1023
104604,1004
104654,964
104705,942
104756,939
104806,938
104857,937
104907,938
104957,938
105009,939
105059,941
105110,944
105160,947
105210,951
105262,963
105312,1003
105363,1023
105413,1023
105463,1023
105515,1023
105565,1023
105616,1023
105666,1023
105717,1023
105767,1023
105819,1023
105869,1023
105919,1023
105970,988
106020,947
106072,940
106122,937
106172,940
106223,939
106273,936
106324,938
106375,938
106425,943
106476,945
106526,947
106577,953
106628,981
106678,1021
106729,1023
106779,1023
106830,1023
106881,1023
106932,1023
106982,1023
107033,1023
107083,1023
107133,1023
107185,1023
107235,1023
107286,1010
107336,966
107387,941
107438,939
107488,938
107539,937
107589,938
107640,938
107691,940
107741,939
107792,945
107842,946
107893,949
107943,959
107994,1000
108045,1023
108095,1023
108146,1023
108196,1023
108248,1023
108298,1023
108349,1023
108399,1023
108449,1023
108500,1023
108551,1023
108602,1023
108652,986
108703,951
108753,940
108804,938
108855,939
108905,938
108956,938
109006,938
109057,939
109108,943
109158,946
109209,948
109259,951
109309,980
109361,1018
109411,1023
109462,1023
109512,1023
109563,1023
109614,1023
109665,1023
109715,1023
109765,1023
109816,1023
109867,1023
109918,1023
109968,1014
110019,972
110069,943
110119,937
110171,938
110221,938
110272,933
110322,937
110372,940
110424,940
110474,944
110525,946
110575,950
110625,955
110676,994
110727,1023
110778,1023
110828,1023
110879,1023
110929,1023
110980,1023
111031,1023
111081,1023
111132,1023
111182,1023
111234,1023
111284,1023
111335,996
111385,961
111435,941
111486,938
111537,939
111588,937
111638,939
111688,938
111739,940
111790,941
111840,947
111891,947
111941,950
111992,964
112043,1004
112094,1023
112144,1023
112194,1023
112245,1023
112295,1023
112347,1023
112397,1023
112448,1023
112498,1023
112549,1023
112600,1023
112650,1023
112701,984
112751,948
112802,939
112852,937
112903,938
112954,938
113004,937
113055,939
113105,939
113156,943
113207,943
113257,947
113308,952
113358,980
113409,1019
113460,1023
113510,1023
113561,1023
113611,1023
113662,1023
113713,1023
113764,1023
113814,1023
113864,1023
113915,1023
113966,1023
114017,1013
114067,971
114118,941
114168,941
114219,937
114270,939
114320,939
114371,936
114421,940
114471,940
114523,944
114573,948
114624,949
114674,956
114724,993
114776,1023
114826,1023
114877,1023
114927,1023
114978,1023
115028,1023
115079,1023
115130,1023
115180,1023
115231,1023
115281,1023
115333,1023
115383,1001
115434,961
115484,941
115534,940
115586,938
115636,938
115687,937
115737,935
115787,938
115838,941
115889,943
115940,946
115990,949
116040,963
116091,1002
116142,1023
116193,1023
116243,1023
116294,1023
116344,1023
116395,1023
116446,1023
116496,1023
116547,1023
116597,1023
116648,1023
116699,1023
116750,985
116800,951
116850,939
116901,938
116952,939
117003,938
117053,937
117103,935
117154,940
117204,941
117255,945
117306,947
117356,951
117407,974
117457,1013
117509,1023
117559,1023
117609,1023
117660,1023
117710,1023
117762,1023
117812,1023
117863,1023
117913,1023
117964,1023
118014,1023
118065,1019
118116,978
118166,945
118217,938
118267,938
118318,938
118369,938
118419,939
118470,937
118520,939
118571,943
118622,945
118672,949
118723,952
118773,986
118823,1023
118875,1023
118925,1023
118976,1023
119026,1023
119077,1023
119128,1023
119179,1023
119229,1023
119279,1023
119330,1023
119380,1023
119432,1007
119482,966
119533,941
119583,938
119633,938
119685,939
119735,937
119786,940
119836,939
119886,940
119938,943
119988,946
120039,949
120089,958
120139,997
120190,1023
120241,1023
120292,1023
120342,1023
120393,1023
120443,1023
120494,1023
120545,1023
120595,1023
120646,1023
120696,1023
120748,1023
120798,996
120849,958
120899,940
120949,936
121000,938
121051,937
121102,937
121152,938
121202,937
121253,942
121304,945
121354,948
121405,950
121455,965
121506,1003
121556,1023
121608,1023
121658,1023
121708,1023
121759,1023
121809,1023
121861,1023
121911,1023
121962,1023
122012,1023
122063,1023
122114,1023
122164,985
122215,950
122265,939
122316,937
122366,939
122417,939
122468,939
122518,939
122569,936
122619,942
122670,947
122721,949
122771,954
122822,975
122872,1013
122923,1023
122974,1023
123024,1023
123075,1023
123125,1023
123176,1023
123227,1023
123278,1023
123328,1023
123379,1023
123429,1023
123480,1018
123531,975
123581,945
123632,938
123682,934
123732,939
123784,939
123834,940
123885,940
123935,939
123985,943
124037,946
124087,948
124138,953
124188,984
124238,1023
124290,1023
124340,1023
124391,1023
124441,1023
124492,1023
124542,1023
124594,1023
124644,1023
124694,1023
124745,1023
124795,1023
124847,1009
124897,969
124948,942
124998,938
125048,938
125100,939
125150,940
125201,939
125251,939
125301,939
125352,943
125403,946
125454,949
125504,956
125554,989
125605,1023
125656,1023
125707,1023
125757,1023
125807,1023
125858,1023
125908,1023
125960,1023
126010,1023
126061,1023
126111,1023
126162,1023
126213,1005
126264,965
126314,943
126364,938
126415,937
126466,939
126516,941
126567,940
126617,940
126668,940
126718,944
126769,947
126820,950
126870,959
126921,999
126971,1023
127023,1023
127073,1023
127123,1023
127174,1023
127224,1023
127276,1023
127326,1023
127377,1023
127427,1023
127478,1023
127528,1023
127579,998
127630,961
127680,942
127731,938
127781,939
127832,939
127883,939
127933,939
127984,940
128034,937
128084,944
128136,945
128186,949
128237,957
128287,1000
128337,1023
128389,1023
128439,1023
128490,1023
128540,1023
128591,1023
128642,1023
128693,1023
128743,1023
128793,1023
128844,1023
128894,1023
128946,996
128996,958
129047,941
129097,937
129147,938
129199,939
129249,937
129300,938
129350,939
129400,940
129452,945
129502,946
129552,950
129603,959
129653,1000
129704,1023
129755,1023
129806,1023
129856,1023
129907,1023
129957,1023
130008,1023
130059,1023
130109,1023
130160,1023
130210,1023
130262,1023
130312,996
130362,957
130413,941
130463,937
130514,938
130565,938
130615,939
130666,939
130716,940
130767,939
130818,945
130868,948
130919,950
130969,962
131020,1000
131070,1023
131122,1023
131172,1023
131222,1023
131273,1023
131323,1023
131375,1023
131425,1023
131476,1023
131526,1023
131577,1023
131628,1023
131678,993
131729,957
131779,939
131830,939
131880,936
131931,940
131982,937
132032,938
132083,940
132133,942
132184,944
132235,946
132285,949
132336,960
132386,1000
132436,1023
132488,1023
132538,1023
132589,1023
132639,1023
132690,1023
132741,1023
132792,1023
132842,1023
132892,1023
132943,1023
132994,1023
133045,993
133095,957
133146,940
133196,938
133246,937
133298,939
133348,937
133399,937
133449,938
133499,940
133551,944
133601,947
133652,949
133702,960
133752,999
133804,1023
133854,1023
133905,1023
133955,1023
134006,1023
134056,1023
134107,1023
134158,1023
134208,1023
134259,1023
134309,1023
134361,1023
134411,999
134461,963
134512,942
134562,939
134614,938
134664,939
134714,938
134765,938
134815,940
134866,939
134917,944
134967,947
135018,949
135068,957
135119,996
135170,1023
135220,1023
135271,1023
135321,1023
135372,1023
135422,1023
135474,1023
135524,1023
135575,1023
135625,1023
135676,1023
135727,1023
135777,1001
135828,961
135878,942
135929,938
135980,937
136030,939
136081,938
136131,939
136182,937
136232,941
136283,944
136334,947
136384,949
136435,958
136485,996
136536,1023
136587,1023
136637,1023
136688,1023
136738,1023
136790,1023
136840,1023
136891,1023
136941,1023
136991,1023
137042,1023
137093,1023
137144,1000
137194,960
137245,943
137295,939
137346,936
137397,940
137447,938
137498,938
137548,938
137598,941
137650,945
137700,946
137751,950
137801,958
137851,997
137903,1023
137953,1023
138004,1023
138054,1023
138105,1023
138156,1023
138206,1023
138257,1023
138307,1023
138358,1023
138408,1023
138460,1023
138510,1002
138561,960
138611,941
138661,938
138713,937
138763,937
138813,939
138864,938
138914,940
138966,939
139016,946
139066,947
139117,950
139167,957
139218,996
139269,1023
139320,1023
139370,1023
139420,1023
139471,1023
139522,1023
139573,1023
139623,1023
139674,1023
139724,1023
139776,1023
139826,1023
139876,1000
139927,963
139977,941
140028,940
140079,937
140129,938
140180,938
140230,939
140281,942
140332,942
140382,944
140433,946
140483,949
140534,957
140584,998
140635,1023
140686,1023
140736,1023
140787,1023
140837,1023
140889,1023
140939,1023
140990,1023
141040,1023
141090,1023
141142,1023
141192,1023
141243,1001
141293,959
141344,940
141394,938
141445,938
141496,938
141546,938
141597,939
141647,938
141698,940
141749,944
141799,945
141850,950
141900,960
141950,1001
142002,1023
142052,1023
142103,1023
142153,1023
142204,1023
142255,1023
142306,1023
142356,1023
142406,1023
142457,1023
142508,1023
142559,1023
142609,993
142660,955
142710,940
142760,938
142812,938
142862,938
142913,937
142963,939
143013,939
143065,941
143115,943
143166,947
143216,950
143266,959
143318,1000
143368,1023
143419,1023
143469,1023
143520,1023
143570,1023
143621,1023
143672,1023
143722,1023
143773,1023
143823,1023
143875,1023
143925,1023
143976,997
144026,961
144076,941
144128,938
144178,937
144229,939
144279,938
144329,939
144380,940
144431,943
144482,944
144532,946
144582,948
144633,955
144684,988
144735,1023
144785,1023
144835,1023
144886,1023
144936,1023
144988,1023
145038,1023
145089,1023
145139,1023
145190,1023
145241,1023
145291,1023
145342,1015
145392,973
145443,945
145494,940
145545,937
145595,938
145645,937
145696,939
145746,941
145797,938
145848,943
145898,946
145949,949
145999,952
146050,976
146101,1013
146151,1023
146202,1023
146252,1023
146304,1023
146354,1023
146405,1023
146455,1023
146505,1023
146556,1023
146607,1023
146658,1023
146708,1023
146759,989
146809,955
146860,942
146911,938
146961,939
147012,938
147062,937
147112,940
147164,939
147214,941
147265,944
147315,948
147365,950
147417,961
147467,1000
147518,1023
147568,1023
147619,1023
147670,1023
147720,1023
147771,1023
147821,1023
147872,1023
147922,1023
147974,1023
148024,1023
148075,1023
148125,1005
148176,964
148227,942
148277,937
148328,938
148378,938
148428,940
148480,938
148530,940
148581,940
148631,944
148681,947
148732,949
148783,954
148834,984
148884,1022
148934,1023
148985,1023
149036,1023
149087,1023
149137,1023
149188,1023
149238,1023
149289,1023
149340,1023
149391,1023
149441,1023
149491,1019
149542,978
149593,947
149644,939
149694,940
149744,939
149795,939
149846,939
149897,939
149947,940
149997,944
150048,944
150098,948
150150,951
150200,976
150250,1014
150301,1023
150351,1023
150403,1023
150453,1023
150504,1023
150554,1023
150605,1023
150656,1023
150706,1023
150757,1023
150807,1023
150858,1023
150908,983
150960,948
151010,939
151060,938
151111,938
151161,938
151213,937
151263,939
151313,939
151364,943
151414,945
151465,948
151516,951
151566,974
151617,1011
151667,1023
151718,1023
151769,1023
151820,1023
151870,1023
151920,1023
151971,1023
152022,1023
152073,1023
152123,1023
152174,1023
152224,1023
152275,984
152326,948
152376,939
152427,938
152477,939
152528,937
152579,938
152629,938
152680,940
152730,943
152781,946
152832,948
152882,951
152933,976
152983,1014
153034,1023
153084,1023
153135,1023
153186,1023
153236,1023
153287,1023
153337,1023
153389,1023
153439,1023
153490,1023
153540,1023
153591,1023
153641,982
153692,946
153743,939
153793,937
153844,938
153894,937
153945,939
153996,939
154046,939
154097,942
154147,946
154198,948
154249,954
154299,977
154349,1017
154400,1023
154450,1023
154502,1023
154552,1023
154603,1023
154653,1023
154704,1023
154755,1023
154806,1023
154856,1023
154906,1023
154957,1019
155008,977
155059,944
155109,938
155159,937
155210,938
155260,937
155312,938
155362,940
155412,937
155463,944
155513,946
155565,946
155615,955
155665,985
155716,1023
155766,1023
155817,1023
155868,1023
155919,1023
155969,1023
156020,1023
156070,1023
156121,1023
156172,1023
156222,1023
156273,1023
156323,1010
156375,969
156425,943
156475,938
156526,937
156576,938
156627,939
156678,939
156728,940
156779,940
156829,946
156880,946
156931,950
156981,958
157032,996
157082,1023
157133,1023
157184,1023
157235,1023
157285,1023
157335,1023
157386,1023
157436,1023
157488,1023
157538,1023
157589,1023
157639,1023
157690,999
157741,960
157791,941
157842,938
157892,938
157943,938
157993,937
158044,939
158095,940
158145,939
158196,945
158246,946
158297,950
158348,964
158398,1004
158449,1023
158499,1023
158550,1023
158601,1023
158651,1023
158702,1023
158752,1023
158803,1023
158854,1023
158905,1023
158955,1023
159006,1023
159056,983
159107,948
159158,939
159208,938
159259,938
159309,938
159360,936
159411,940
159461,940
159512,942
159562,946
159612,948
159664,952
159714,979
159765,1020
159815,1023
159865,1023
159917,1023
159967,1023
160018,1023
160068,1023
160119,1023
160169,1023
160221,1023
160271,1023
160321,1023
160372,1012
160422,969
160474,942
160524,939
160575,939
160625,938
160675,938
160727,936
160777,940
160827,940
160878,944
160928,947
160979,950
161030,958
161080,996
161131,1023
161181,1023
161232,1023
161283,1023
161334,1023
161384,1023
161435,1023
161485,1023
161536,1023
161587,1023
161637,1023
161688,1023
161738,994
161789,956
161840,940
161890,938
161941,939
161991,935
162042,939
162093,941
162143,940
162194,942
162244,945
162295,947
162345,951
162396,968
162447,1009
162497,1023
162548,1023
162598,1023
162650,1023
162700,1023
162750,1023
162801,1023
162851,1023
162903,1023
162953,1023
163004,1023
163054,1021
163105,978
163155,946
163206,938
163257,937
163307,938
163358,937
163408,939
163459,938
163510,940
163560,943
163611,945
163661,948
163712,953
163763,987
163813,1023
163864,1023
163914,1023
163964,1023
164016,1023
164066,1023
164117,1023
164167,1023
164218,1023
164269,1023
164320,1023
164370,1023
164420,1002
164471,962
164521,941
164573,938
164623,938
164673,939
164724,934
164774,939
164826,940
164876,943
164926,944
164977,947
165027,951
165079,966
165129,1004
165179,1023
165230,1023
165280,1023
165331,1023
165382,1023
165433,1023
165483,1023
165534,1023
165584,1023
165636,1023
165686,1023
165736,1019
165787,981
165837,952
165889,949
165939,943
165989,941
166040,942
166090,949
166141,944
166192,944
166242,948
166293,955
166343,953
166394,955
166445,983
166495,1020
166546,1023
166596,1023
166647,1023
166697,1023
166749,1023
166799,1023
166850,1023
166900,1023
166950,1023
167002,1023
167052,1023
167103,1002
167153,961
167204,935
167255,939
167305,937
167356,939
167406,938
167457,937
167507,940
167558,941
167609,944
167659,949
167710,949
167760,968
167811,1005
167862,1023
167912,1023
167963,1023
168013,1023
168065,1023
168115,1023
168165,1023
168216,1023
168266,1023
168317,1023
168368,1023
168419,1021
168469,982
168520,948
168570,935
168621,938
168672,938
168722,938
168772,938
168823,939
168873,940
168925,942
168975,945
169025,947
169076,954
169126,985
169178,1023
169228,1023
169279,1023
169329,1023
169379,1023
169431,1023
169481,1023
169532,1023
169582,1023
169633,1023
169683,1023
169735,1023
169785,999
169835,964
169886,941
169936,936
169988,939
170038,938
170088,938
170139,938
170189,936
170241,941
170291,943
170341,945
170392,1023
170442,1023
170493,1007
170544,970
170594,945
170645,946
170695,944
170746,943
170797,944
170847,944
170898,946
170948,948
170999,951
171049,953
171100,956
171151,979
171201,1011
171252,1023
171302,1023
171354,1023
171404,1023
171454,1023
171505,1023
171555,1023
171607,1023
171657,1023
171708,1023
171758,1023
171809,1014
171859,980
171910,948
171961,939
172011,941
172062,942
172112,942
172163,944
172214,944
172264,945
172315,947
172365,950
172416,954
172467,964
172517,994
172568,1023
172618,1023
172668,1023
172720,1023
172770,1023
172821,1023
172871,1023
172922,1023
172973,1023
173024,1023
173074,1023
173124,1023
173175,996
173225,966
173277,944
173327,941
173378,940
173428,942
173478,941
173530,944
173580,945
173630,948
173681,950
173731,952
173783,955
173833,976
173883,1007
173934,1023
173984,1023
174035,1023
174086,1023
174137,956
174187,1002
174238,948
174288,949
174339,948
174390,950
174440,951
174491,967
174541,999
174592,1023
174643,1023
174693,1023
174744,1023
174794,1023
174845,1023
174896,1023
174946,1023
174997,1023
175047,1023
175098,1023
175149,1023
175200,990
175250,956
175300,942
175351,939
175401,938
175453,937
175503,939
175553,939
175604,938
175654,943
175706,944
175756,948
175806,951
175857,983
175907,1015
175959,1023
176009,1023
176060,1023
176110,1023
176160,1023
176211,1023
176262,1023
176313,1023
176363,1023
176414,1023
176464,1023
176516,1004
176566,970
176616,941
176667,939
176717,940
176769,939
176819,937
176869,940
176920,942
176970,942
177021,945
177072,947
177122,950
177173,972
177223,1004
177274,1023
177325,1023
177376,1023
177426,1023
177476,1023
177527,1023
177577,1023
177629,1023
177679,1023
177730,1023
177780,1023
177831,1017
177882,983
177932,947
177983,940
178033,939
178084,938
178135,939
178185,937
178236,940
178286,940
178337,945
178387,946
178438,950
178489,958
178539,994
178590,1023
178640,1023
178691,1023
178742,1023
178792,1023
178843,1023
178893,1023
178945,1023
178995,1023
179046,1023
179096,1023
179146,1023
179197,994
179248,960
179299,941
179349,938
179399,939
179450,938
179501,940
179552,940
179602,940
179652,944
179703,947
179753,948
179805,953
179855,980
179905,1014
179956,1023
180006,1023
180058,1023
180108,1023
180159,1023
180209,1023
180260,1023
180311,1023
180361,1023
180412,1023
180462,1023
180513,1005
180563,970
180615,944
180665,938
180715,940
180766,938
180816,937
180868,939
180918,941
180968,942
181019,945
181069,949
181121,951
181171,972
181221,1006
181272,1023
181322,1023
181373,1023
181424,1023
181475,1023
181525,1023
181576,1023
181626,1023
181677,1023
181728,1023
181778,1023
181829,1015
181879,979
181931,945
181981,941
182031,939
182082,938
182132,939
182183,939
182234,940
182284,941
182335,944
182385,947
182436,951
182487,962
182537,996
182588,1023
182638,1023
182689,1023
182739,1023
182791,1023
182841,1023
182891,1023
182942,1023
182992,1023
183044,1023
183094,1023
183145,1023
183195,989
183246,957
183297,939
183347,936
183398,939
183448,938
183499,939
183549,939
183600,940
183651,944
183701,946
183751,949
183802,955
183853,982
183904,1016
183954,1023
184005,1023
184055,1023
184105,1023
184157,1023
184207,1023
184258,1023
184308,1023
184359,1023
184410,1023
184461,1023
184511,1003
184561,967
184612,941
184663,936
184714,939
184764,937
184814,938
184865,939
184915,939
184967,942
185017,944
185067,948
185118,951
185168,975
185220,1008
185270,1023
185321,1023
185371,1023
185421,1023
185473,1023
185523,1023
185574,1023
185624,1023
185675,1023
185725,1023
185777,1023
185827,1013
185877,976
185928,945
185978,939
186030,949
186080,947
186130,943
186181,942
186231,941
186283,941
186333,946
186383,947
186434,1023
186484,1023
186535,1002
186586,965
186637,947
186687,945
186737,944
186788,944
186839,945
186889,946
186940,945
186990,947
187041,950
187091,952
187142,957
187193,983
187243,1014
187294,1023
187344,1023
187396,1023
187446,1023
187496,1023
187547,1023
187597,1023
187649,1023
187699,1023
187750,1023
187800,1023
187851,1008
187901,968
187952,944
188003,942
188053,941
188104,940
188154,941
188205,942
188256,946
188306,946
188357,949
188407,952
188457,957
188509,974
188559,1006
188610,1023
188660,1023
188711,1023
188762,1023
188812,1023
188863,1023
188913,1023
188964,1023
189015,1023
189066,1023
189116,1023
189167,1014
189217,981
189267,948
189319,939
189369,942
189420,941
189470,941
189520,943
189572,944
189622,946
189673,948
189723,951
189773,954
189825,966
189875,996
189926,1023
189976,1023
190027,1023
190077,1023
190128,1023
190179,1023
190229,1023
190280,1023
190330,1023
190382,1023
190432,1023
190483,1023
190533,1021
190583,1023
190635,1023
190685,1023
190736,1023
190786,1023
190837,1023
190887,1023
190939,1023
190989,1023
191039,1023
191090,1023
191140,1011
191192,977
191242,945
191293,941
191343,938
191393,939
191444,938
191495,938
191546,937
191596,941
191646,944
191697,947
191748,952
191799,966
191849,996
191899,1023
191950,1023
192001,1023
192052,1023
192102,1023
192153,1023
192203,1023
192253,1023
192305,1023
192355,1023
192406,1023
192456,1023
192507,988
192558,956
192609,940
192659,939
192709,938
192760,937
192811,938
192861,940
192912,938
192962,944
193013,946
193063,948
193114,952
193165,982
193215,1013
193266,1023
193316,1023
193368,1023
193418,1023
193468,1023
193519,1023
193569,1023
193620,1023
193671,1023
193722,1023
193772,1023
193823,1005
193873,969
193924,942
193975,939
194025,940
194076,939
194126,937
194177,939
194228,939
194278,941
194329,945
194379,949
194429,951
194481,974
194531,1006
194582,1023
194632,1023
194683,1023
194734,1023
194784,1023
194835,1023
194885,1023
194936,1023
194987,1023
195038,1023
195088,1023
195139,1014
195189,978
195239,945
195291,939
195341,939
195392,936
195442,939
195492,936
195544,936
195594,941
195645,944
195695,946
195745,949
195796,962
195847,996
195898,1023
195948,1023
195998,1023
196049,1023
196100,1023
196151,1023
196201,1023
196252,1023
196302,1023
196354,1023
196404,1023
196455,1023
196505,992
196555,956
196606,940
196657,939
196708,938
196758,939
196808,937
196859,940
196910,938
196961,943
197011,945
197061,948
197112,951
197163,980
197213,1015
197264,1023
197314,1023
197365,1023
197415,1023
197467,1023
197517,1023
197568,1023
197618,1023
197669,1023
197720,1023
197770,1023
197821,1005
197871,970
197922,944
197972,939
198023,940
198074,939
198124,936
198175,938
198225,940
198276,943
198327,944
198377,947
198428,951
198478,973
198529,1007
198580,1023
198630,1023
198681,1023
198731,1023
198782,1023
198833,1023
198884,1023
198934,1023
198985,1023
199035,1023
199086,1023
199137,1010
199187,976
199238,943
199288,939
199339,939
199390,939
199440,939
199491,939
199541,940
199591,942
199643,945
199693,947
199744,951
199794,965
199844,999
199896,1023
199946,1023
199997,1023
200047,1023
200098,1023
200148,1023
200200,1023
200250,1023
200300,1023
200351,1023
200401,1023
200453,1023
200503,985
200554,952
200604,938
200654,939
200706,941
200756,939
200807,939
200857,939
200907,941
200958,943
201009,947
201060,948
201110,954
201160,985
201211,1018
201262,1023
201313,1023
201363,1023
201414,1023
201464,1023
201515,1023
201566,1023
201616,1023
201667,1023
201717,1023
201768,1023
201819,1001
201870,963
201920,942
201970,938
202021,939
202072,938
202123,938
202173,939
202223,938
202274,944
202324,945
202376,948
202426,952
202476,975
202527,1007
202577,1023
202629,1023
202679,1023
202729,1023
202780,1023
202830,1023
202882,1023
202932,1023
202983,1023
203033,1023
203084,1023
203134,1014
203186,977
203236,945
203286,940
203337,937
203387,939
203438,938
203489,939
203539,940
203590,941
203640,945
203691,947
203742,950
203792,964
203843,1000
203893,1023
203944,1023
203995,1023
204045,1023
204096,1023
204146,1023
204197,1023
204248,1023
204299,1023
204349,1023
204400,1023
204450,1023
204500,988
204552,952
204602,939
204653,940
204703,937
204753,940
204805,938
204855,939
204906,940
204956,943
205006,945
205058,949
205108,954
205159,990
205209,1020
205259,1023
205310,1023
205361,1023
205412,1023
205462,1023
205513,1023
205563,1023
205615,1023
205665,1023
205716,1023
205766,1023
205816,1000
205868,966
205918,943
205969,939
206019,938
206069,939
206120,939
206171,939
206222,939
206272,942
206322,944
206373,948
206424,952
206475,973
206525,1008
206575,1023
206626,1023
206676,1023
206728,1023
206778,1023
206829,1023
206879,1023
206930,1023
206981,1023
207031,1023
207082,1023
207132,1023
207183,990
207234,954
207285,944
207335,943
207385,941
207436,941
207486,938
207538,942
207588,940
207638,945
207689,947
207739,949
207791,958
207841,993
207891,1022
207942,1023
207992,1023
208044,1023
208094,1023
208145,1023
208195,1023
208246,1023
208296,1023
208347,1023
208398,1023
208448,1023
208499,1000
208549,963
208601,942
208651,940
208701,938
208752,938
208802,937
208854,938
208904,940
208954,942
209005,945
209055,947
209106,950
209157,970
209207,1004
209258,1023
209308,1023
209359,1023
209410,1023
209461,1023
209511,1023
209561,1023
209612,1023
209662,1023
209714,1023
209764,1023
209815,1020
209865,985
209916,950
209967,940
210017,939
210068,939
210118,940
210168,938
210220,942
210270,940
210321,944
210371,945
210421,950
210472,953
210523,987
210574,1018
210624,1023
210675,1023
210725,1023
210776,1023
210827,1023
210877,1023
210928,1023
210978,1023
211030,1023
211080,1023
211131,1023
211181,1004
211231,968
211282,942
211333,939
211384,937
211434,938
211484,938
211535,938
211586,939
211637,943
211687,944
211737,947
211788,952
211838,968
211890,1001
211940,1023
211991,1023
212041,1023
212091,1023
212143,1023
212193,1023
212244,1023
212294,1023
212345,1023
212396,1023
212447,1023
212497,1023
212547,985
212598,953
212648,940
212700,940
212750,939
212800,938
212851,938
212901,940
212953,940
213003,943
213053,946
213104,949
213154,952
213206,979
213256,1011
213306,1023
213357,1023
213407,1023
213458,1023
213509,1023
213560,1023
213610,1023
213661,1023
213711,1023
213762,1023
213813,1023
213863,1012
213914,974
213964,946
214016,938
214066,940
214116,939
214167,939
214217,939
214267,940
214319,940
214369,945
214420,945
214470,950
214520,958
214572,992
214622,1023
214673,1023
214723,1023
214774,1023
214824,1023
214875,1023
214926,1023
214976,1023
215027,1023
215077,1023
215129,1023
215179,1023
215230,1002
215280,964
215330,943
215382,940
215432,939
215483,938
215533,935
215583,939
215634,939
215685,942
215736,945
215786,946
215836,951
215887,970
215938,1004
215989,1023
216039,1023
216090,1023
216140,1023
216190,1023
216242,1023
216292,1023
216343,1023
216393,1023
216444,1023
216495,1023
216546,1023
216596,988
216646,950
216697,940
216748,939
216799,938
216849,939
216899,937
216950,940
217000,940
217052,943
217102,946
217152,949
217203,952
217253,979
217305,1014
217355,1023
217405,1023
217456,1023
217506,1023
217558,1023
217608,1023
217659,1023
217709,944
217760,946
217810,949
217861,953
217912,972
217962,1002
218013,1023
218063,1023
218114,1023
218165,1023
218215,1023
218266,1023
218316,1023
218368,1023
218418,1023
218469,1023
218519,1023
218569,1022
218620,986
218671,953
218722,941
218772,940
218823,940
218873,942
218924,944
218975,945
219025,945
219075,949
219126,950
219176,952
219228,956
219278,982
219328,1013
219379,1023
219429,1023
219481,1023
219531,1023
219582,1023
219632,1023
219683,1023
219734,1023
219784,1023
219835,1023
219885,1023
219936,1012
219986,977
220038,946
220088,940
220138,942
220189,942
220239,942
220291,943
220341,945
220391,945
220442,947
220492,950
220544,953
220594,964
220644,993
220695,1023
220745,1023
220796,1023
220847,1023
220898,1023
220948,1023
220999,1023
221049,1023
221100,1023
221151,1023
221201,1023
221252,1023
221302,1001
221353,965
221404,944
221454,941
221505,940
221555,940
221606,941
221657,945
221707,943
221758,948
221808,948
221859,950
221910,952
221960,970
222011,1004
222061,1023
222112,1023
222162,1023
222214,1023
222264,1023
222314,1023
222365,1023
222415,1023
222467,1023
222517,1023
222568,1023
222618,1020
222669,987
222720,954
222770,943
222821,939
222871,941
222922,940
222972,943
223023,944
223074,944
223124,948
223175,948
223225,952
223276,956
223327,982
223377,1011
223428,1023
223478,1023
223528,1023
223580,1023
223630,1023
223681,1023
223731,1023
223782,1023
223833,1023
223884,1023
223934,1023
223985,1013
224035,982
224086,945
224137,941
224187,939
224238,941
224288,941
224338,943
224390,946
224440,944
224491,949
224541,949
224591,952
224643,958
224693,990
224743,1020
224794,1023
224844,1023
224896,1023
224946,1023
224997,1023
225047,1023
225098,1023
225148,1023
225200,1023
225250,1023
225300,1023
225351,1006
225401,973
225453,944
225503,940
225553,937
225604,941
225654,941
225705,943
225756,944
225806,945
225857,950
225907,950
225958,952
226009,966
226059,997
226110,1023
226160,1023
226211,1023
226262,1023
226313,1023
226363,1023
226414,1023
226464,1023
226514,1023
226566,1023
226616,1023
226667,1023
226717,997
226768,967
226819,943
226869,942
226920,940
226970,941
227021,942
227072,946
227122,944
227173,948
227223,950
227274,952
227324,955
227375,973
227426,1003
227476,1023
227527,1023
227577,1023
227628,1023
227679,1023
227729,1023
227780,1023
227830,1023
227881,1023
227932,1023
227983,1023
228033,1021
228084,988
228134,953
228185,941
228236,940
228286,940
228336,941
228387,942
228438,945
228489,945
228539,947
228589,949
228640,953
228690,955
228742,984
228792,1013
228842,1023
228893,1023
228943,1023
228995,1023
229045,1023
229096,1023
229146,1023
229197,1023
229248,1023
229299,1023
229349,1023
229399,1009
229450,976
229500,944
229552,941
229602,941
229652,938
229703,941
229753,943
229805,945
229855,947
229905,945
229956,950
230006,954
230057,964
230108,996
230158,1023
230209,1023
230259,1023
230310,1023
230361,1023
230412,1023
230462,1023
230513,1023
230563,1023
230614,1023
230665,1023
230715,1023
230766,997
230816,964
230867,942
230918,941
230968,940
231019,939
231069,941
231120,943
231171,944
231221,947
231272,949
231322,951
231373,955
231424,971
231474,1002
231525,1023
231575,1023
231626,1023
231676,1023
231728,1023
231778,1023
231828,1023
231879,1023
231929,1023
231981,1023
232031,1023
232082,1022
232132,988
232183,955
232233,941
232284,940
232335,940
232385,940
232435,943
232486,945
232537,944
232588,947
232638,948
232688,952
232739,957
232790,981
232841,1012
232891,1023
232942,1023
232992,1023
233042,1023
233094,1023
233144,1023
233195,1023
233245,1023
233296,1023
233347,1023
233398,1023
233448,1013
233498,977
233549,947
233600,942
233651,941
233701,940
233751,938
233802,944
233852,944
233904,945
233954,948
234004,949
234055,955
234105,961
234157,993
234207,1022
234257,1023
234308,1023
234358,1023
234409,1023
234460,1023
234511,1023
234561,1023
234612,1023
234662,1023
234713,1023
234764,1023
234814,1001
234865,964
234915,943
234967,941
235017,942
235067,940
235118,941
235168,943
235219,945
235270,946
235320,949
235371,950
235421,954
235472,973
235523,1005
235573,1023
235624,1023
235674,1023
235725,1023
235776,1023
235827,1023
235877,1023
235928,1023
235978,1023
236028,1023
236080,1023
236130,1018
236181,984
236231,948
236282,941
236333,942
236383,941
236434,942
236484,943
236535,945
236585,945
236636,947
236687,948
236737,952
236788,955
236838,984
236889,1016
236940,1023
236990,1023
237041,1023
237091,1023
237143,1023
237193,1023
237243,1023
237294,1023
237344,1023
237395,1023
237446,1023
237497,1007
237547,973
237598,944
237648,940
237699,940
237750,940
237800,941
237851,943
237901,944
237952,946
238003,949
238053,950
238104,954
238154,966
238204,998
238256,1023
238306,1023
238357,1023
238407,1023
238457,1023
238509,1023
238559,1023
238610,1023
238660,1023
238711,1023
238761,1023
238813,1023
238863,996
238913,962
238964,941
239014,940
239066,941
239116,940
239166,942
239217,943
239267,944
239319,947
239369,949
239419,951
239470,956
239520,978
239571,1011
239622,1023
239673,1023
239723,1023
239773,1023
239824,1023
239875,1023
239926,1023
239976,1023
240027,1023
240077,1023
240129,1023
240179,1013
240229,979
240280,948
240330,941
240381,940
240432,941
240482,941
240533,944
240583,943
240634,946
240685,948
240735,950
240786,952
240836,962
240887,992
240937,1023
240988,1023
241039,1023
241089,1023
241140,1023
241190,1023
241242,1023
241292,1023
241343,1023
241393,1023
241443,1023
241495,1023
241545,1001
241596,965
241646,943
241697,941
241747,941
241798,940
241849,940
241899,942
241950,945
242000,947
242051,949
242102,950
242152,955
242203,975
242253,1005
242304,1023
242355,1023
242405,1023
242456,1023
242506,1023
242557,1023
242608,1023
242659,1023
242709,1023
242759,1023
242810,1023
242861,1020
242912,985
242962,949
243013,942
243063,939
243113,942
243165,942
243215,941
243266,943
243316,946
243366,947
243418,950
243468,952
243519,958
243569,987
243619,1017
243671,1023
243721,1023
243772,1023
243822,1023
243873,1023
243923,1023
243975,1023
244025,1023
244075,1023
244126,1023
244176,1023
244228,1004
244278,969
244329,943
244379,939
244429,940
244481,941
244531,940
244582,944
244632,944
244682,946
244733,948
244784,951
244835,954
244885,971
244935,1000
244986,1023
245037,1023
245088,1023
245138,1023
245189,1023
245239,1023
245289,1023
245341,1023
245391,1023
245442,1023
245492,1023
245543,1022
245594,987
245645,953
245695,941
245745,940
245796,941
245847,941
245898,943
245948,944
245998,946
246049,948
246099,950
246151,951
246201,958
246251,985
246302,1015
246352,1023
246404,1023
246454,1023
246504,1023
246555,1023
246605,1023
246657,1023
246707,1023
246758,1023
246808,1023
246859,1023
246909,1006
246961,971
247011,943
247061,940
247112,941
247162,941
247213,941
247264,944
247314,944
247365,947
247415,948
247465,950
247517,952
247567,971
247618,1001
247668,1023
247719,1023
247770,1023
247820,1023
247871,1023
247921,1023
247972,1023
248023,1023
248074,1023
248124,1023
248175,1023
248225,1020
248275,985
248327,951
248377,942
248428,939
248478,941
248528,941
248580,943
248630,944
248681,947
248731,948
248781,950
248833,952
248883,959
248934,991
248984,1020
249034,1023
249085,1023
249136,1023
249187,1023
249237,1023
249288,1023
249338,1023
249390,1023
249440,1023
249491,1023
249541,1023
249591,1000
249643,961
249693,941
249744,940
249794,940
249844,941
249895,942
249946,943
249997,945
250047,947
250097,950
250148,952
250199,955
250250,980
250300,1010
250350,1023
250401,1023
250451,1023
250503,1023
250553,1023
250604,1023
250654,1023
250705,1023
250756,1023
250806,1023
250857,1023
250907,1007
250958,972
251009,946
251060,938
251110,940
251160,941
251211,942
251261,944
251313,945
251363,946
251413,948
251464,950
251514,955
251566,971
251616,1002
251666,1023
251717,1023
251767,1023
251819,1023
251869,1023
251920,1023
251970,1023
252021,1023
252071,1023
252122,1023
252173,1023
252223,1017
252274,982
252324,950
252376,942
252426,938
252476,940
252527,940
252577,942
252628,945
252679,945
252729,947
252780,949
252830,954
252880,962
252932,995
252982,1023
253033,1023
253083,1023
253134,1023
253185,1023
253236,1023
253286,1023
253336,1023
253387,1023
253437,1023
253489,1023
253539,1023
253590,990
253640,955
253690,941
253742,940
253792,940
253843,941
253893,944
253943,943
253995,945
254045,946
254096,950
254146,952
254196,959
254247,989
254298,1022
254349,1023
254399,1023
254450,1023
254500,1023
254551,1023
254602,1023
254652,1023
254703,1023
254753,1023
254804,1023
254855,1023
254906,994
254956,962
255006,942
255057,940
255108,940
255159,938
255209,942
255259,944
255310,943
255361,947
255412,948
255462,951
255512,956
255563,988
255613,1018
255665,1023
255715,1023
255766,1023
255816,1023
255866,1023
255918,1023
255968,1023
256019,1023
256069,1023
256120,1023
256171,1023
256222,998
256272,964
256322,942
256373,941
256423,940
256475,940
256525,940
256575,943
256626,944
256676,947
256727,948
256778,951
256828,956
256879,982
256929,1015
256980,1023
257031,1023
257081,1023
257132,1023
257182,1023
257233,1023
257284,1023
257335,1023
257385,1023
257436,1023
257486,1023
257537,1001
257588,963
257638,941
257689,940
257739,941
257789,941
257841,944
257891,942
257942,945
257992,947
258042,949
258094,951
258144,956
258195,984
258245,1018
258295,1023
258347,1023
258397,1023
258448,1023
258498,1023
258549,1023
258599,1023
258651,1023
258701,1023
258751,1023
258802,1023
258852,995
258904,965
258954,942
259005,940
259055,940
259105,940
259156,943
259207,943
259258,943
259308,945
259358,948
259409,951
259460,956
259511,984
259561,1015
259611,1023
259662,1023
259713,1023
259764,1023
259814,1023
259865,1023
259915,1023
259965,1023
260017,1023
260067,1023
260118,1023
260168,999
260219,963
260270,943
260320,941
260371,940
260421,940
260472,943
260523,945
260573,944
260624,947
260674,949
260725,952
260775,957
260826,986
260877,1018
260927,1023
260978,1023
261028,1023
261080,1023
261130,1023
261180,1023
261231,1023
261281,1023
261332,1023
261383,1023
261434,1023
261484,995
261535,961
261585,943
261636,940
261687,941
261737,940
261788,943
261838,943
261889,944
261940,946
261990,949
262041,954
262091,958
262141,988
262193,1021
262243,1023
262294,1023
262344,1023
262394,1023
262446,1023
262496,1023
262547,1023
262597,1023
262648,1023
262699,1023
262750,1023
262800,992
262850,955
262901,942
262951,940
263003,940
263053,942
263103,943
263154,944
263204,944
263256,948
263306,949
263356,952
263407,960
263457,992
263508,1023
263559,1023
263609,1023
263660,1023
263710,1023
263761,1023
263812,1023
263863,1023
263913,1023
263964,1023
264014,1023
264066,1021
264116,988
264166,952
264217,941
264267,940
264318,939
264369,941
264419,942
264470,944
264520,945
264571,946
264622,950
264672,953
264723,963
264773,995
264823,1023
264875,1023
264925,1023
264976,1023
265026,1023
265077,1023
265127,1023
265179,1023
265229,1023
265280,1023
265330,1023
265380,1020
265432,985
265482,950
265533,940
265583,940
265633,943
265684,941
265735,943
265786,945
265836,947
265886,947
265937,950
265988,953
266039,968
266089,998
266139,1023
266190,1023
266241,1023
266292,1023
266342,1023
266393,1023
266443,1023
266494,1023
266545,1023
266595,1023
266646,1023
266696,1014
266747,980
266798,948
266849,940
266899,940
266949,940
267000,940
267051,942
267102,944
267152,946
267202,949
267253,952
267303,954
267354,972
267405,1005
267455,1023
267506,1023
267556,1023
267608,1023
267658,1023
267709,1023
267759,1023
267809,1023
267860,1023
267911,1023
267962,1023
268012,1006
268063,970
268113,944
268164,939
268215,941
268265,940
268316,941
268366,942
268417,945
268468,947
268518,949
268569,952
268619,958
268669,984
268721,1015
268771,1023
268822,1023
268872,1023
268923,1023
268974,1023
269025,1023
269075,1023
269125,1023
269176,1023
269227,1023
269278,1023
269328,996
269379,961
269429,942
269479,940
269531,939
269581,942
269632,942
269682,944
269732,944
269784,948
269834,949
269885,953
269935,959
269985,993
270036,1022
270087,1023
270138,1023
270188,1023
270239,1023
270289,1023
270340,1023
270391,1023
270441,1023
270492,1023
270542,1023
270594,1023
270644,988
270695,952
270745,940
270795,940
270846,940
270897,941
270947,944
270998,944
271048,946
271099,947
271150,951
271200,954
271251,969
271301,1000
271352,1023
271403,1023
271454,1023
271504,1023
271554,1023
271605,1023
271655,1023
271707,1023
271757,1023
271808,1023
271858,1023
271909,1007
271960,971
272010,945
272061,943
272111,939
272162,940
272212,941
272263,944
272314,945
272364,947
272415,948
272465,951
272516,955
272567,982
272617,1016
272668,1023
272718,1023
272770,1023
272820,1023
272870,1023
272921,1023
272971,1023
273022,1023
273073,1023
273124,1023
273174,1023
273225,992
273275,954
273326,941
273377,940
273427,940
273478,939
273528,942
273579,944
273630,945
273680,947
273731,950
273781,952
273831,967
273883,998
273933,1023
273984,1023
274034,1023
274084,1023
274136,1023
274186,1023
274237,1023
274287,1023
274338,1023
274388,1023
274440,1023
274490,1012
274541,975
274591,944
274641,940
274693,939
274743,940
274793,942
274844,943
274894,944
274946,946
274996,951
275046,951
275097,955
275147,981
275198,1015
275249,1023
275300,1023
275350,1023
275400,1023
275451,1023
275502,1023
275553,1023
275603,1023
275654,1023
275704,1023
275756,1023
275806,992
275856,955
275907,943
275957,940
276008,941
276059,941
276109,943
276160,944
276210,945
276261,948
276312,950
276362,955
276413,966
276463,1001
276514,1023
276564,1023
276616,1023
276666,1023
276716,1023
276767,1023
276817,1023
276869,1023
276919,1023
276970,1023
277020,1023
277071,1005
277122,969
277172,944
277223,942
277273,942
277324,940
277374,942
277425,943
277476,945
277526,946
277577,950
277627,952
277678,956
277729,989
277779,1021
277830,1023
277880,1023
277931,1023
277982,1023
278032,1023
278083,1023
278133,1023
278184,1023
278235,1023
278286,1023
278336,1021
278387,986
278437,950
278488,942
278539,940
278589,940
278639,940
278690,942
278740,944
278792,945
278842,948
278892,950
278943,955
278993,972
279045,1005
279095,1023
279146,1023
279196,1023
279246,1023
279298,1023
279348,1023
279399,1023
279449,1023
279500,1023
279550,1023
279602,1023
279652,1002
279702,962
279753,942
279803,939
279855,941
279905,939
279955,943
280006,943
280056,945
280108,947
280158,950
280208,952
280259,963
280309,995
280360,1023
280411,1023
280462,1023
280512,1023
280562,1023
280613,1023
280664,1023
280715,1023
280765,1023
280816,1023
280866,1023
280918,1013
280968,976
281018,945
281069,940
281119,1023
281170,1023
281221,1023
281272,1023
281322,1023
281372,1023
281423,1023
281474,1023
281525,1023
281575,991
281626,952
281676,939
281726,938
281778,938
281828,938
281879,936
281929,940
281979,940
282031,944
282081,945
282132,948
282182,963
282232,998
282284,1023
282334,1023
282385,1023
282435,1023
282486,1023
282536,1023
282587,1023
282638,1023
282688,1023
282739,1023
282789,1023
282841,1008
282891,969
282942,941
282992,938
283042,936
283094,938
283144,938
283195,938
283245,939
283295,942
283346,945
283397,947
283447,951
283498,982
283548,1018
283599,1023
283650,1023
283701,1023
283751,1023
283802,1023
283852,1023
283902,1023
283954,1023
284004,1023
284055,1023
284105,1023
284156,988
284207,954
284257,938
284308,937
284358,938
284409,938
284460,937
284510,940
284561,941
284611,944
284662,948
284712,949
284763,970
284814,1003
284864,1023
284915,1023
284965,1023
285017,1023
285067,1023
285117,1023
285168,1023
285218,1023
285270,1023
285320,1023
285371,1023
285421,1003
285472,962
285522,942
285573,936
285624,936
285674,937
285725,937
285775,937
285826,940
285877,943
285927,945
285978,947
286028,953
286078,988
286130,1023
286180,1023
286231,1023
286281,1023
286332,1023
286383,1023
286433,1023
286484,1023
286534,1023
286585,1023
286636,1023
286687,1021
286737,981
286788,947
286838,939
286888,938
286940,937
286990,938
287040,938
287091,940
287141,941
287193,944
287243,946
287293,950
287344,969
287394,1007
287446,1023
287496,1023
287547,1023
287597,1023
287647,1023
287698,1023
287749,1023
287800,1023
287850,1023
287901,1023
287951,1023
288003,1001
288053,963
288103,941
288154,938
288204,938
288256,938
288306,937
288356,938
288407,939
288457,943
288508,944
288559,947
288609,956
288660,991
288710,1023
288761,1023
288812,1023
288863,1023
288913,1023
288963,1023
289014,1023
289064,1023
289116,1023
289166,1023
289217,1023
289267,1019
289318,982
289369,947
289419,938
289470,939
289520,937
289571,938
289622,937
289672,940
289723,942
289773,945
289824,946
289874,950
289925,972
289976,1007
290026,1023
290077,1023
290127,1023
290179,1023
290229,1023
290279,1023
290330,1023
290380,1023
290432,1023
290482,1023
290533,1023
290583,999
290633,959
290684,940
290735,939
290786,937
290836,939
290886,939
290937,940
290988,940
291039,943
291089,946
291139,949
291190,957
291240,993
291292,1023
291342,1023
291393,1023
291443,1023
291493,1023
291545,1023
291595,1023
291646,1023
291696,1023
291747,1023
291798,1023
291849,1016
291899,979
291949,944
292000,939
292050,938
292102,938
292152,935
292202,939
292253,939
292303,942
292355,945
292405,947
292455,950
292506,977
292556,1012
292608,1023
292658,1023
292708,1023
292759,1023
292809,1023
292860,1023
292911,1023
292962,1023
293012,1023
293063,1023
293113,1023
293165,994
293215,958
293265,939
293316,939
293366,938
293416,938
293468,938
293518,938
293569,940
293619,943
293669,946
293721,948
293771,957
293822,995
293872,1023
293922,1023
293974,1023
294024,1023
294075,1023
294125,1023
294176,1023
294226,1023
294278,1023
294328,1023
294379,1023
294429,1012
294479,976
294531,944
294581,938
294632,939
294682,939
294732,937
294784,938
294834,938
294885,943
294935,945
294985,947
295036,951
295087,977
295138,1013
295188,1023
295238,1023
295289,1023
295340,1023
295391,1023
295441,1023
295492,1023
295542,1023
295593,1023
295644,1023
295694,1023
295745,986
295795,949
295846,940
295897,938
295948,939
295998,938
296048,939
296099,940
296150,943
296200,944
296251,947
296301,949
296352,965
296402,1007
296454,1023
296504,1023
296554,1023
296605,1023
296655,1023
296707,1023
296757,1023
296808,1023
296858,1023
296909,1023
296960,1023
297010,1000
297061,956
297111,940
297162,939
297212,938
297263,937
297314,939
297364,940
297415,940
297465,943
297516,945
297567,948
297617,955
297668,995
297718,1023
297768,1023
297820,1023
297870,1023
297921,1023
297971,1023
298022,1023
298073,1023
298124,1023
298174,1023
298225,1023
298275,1016
298326,976
298377,943
298427,938
298478,938
298528,938
298578,938
298630,939
298680,938
298731,942
298781,945
298831,946
298883,952
298933,976
298984,1012
299034,1023
299084,1023
299136,1023
299186,1023
299237,1023
299287,1023
299338,1023
299388,1023
299440,1023
299490,1023
299540,1023
299591,994
299641,956
299693,939
299743,938
299793,938
299844,937
299894,938
299945,939
299996,940
300046,944
300097,946
300147,948
300198,960
300249,997
300299,1023
300350,1023
300400,1023
300451,1023
300502,1023
300553,1023
300603,1023
300654,1023
300704,1023
300754,1023
300806,1023
300856,1009
300907,972
300957,942
301008,940
301059,938
301109,938
301160,936
301210,938
301261,939
301312,943
301362,946
301413,948
301463,954
301514,985
301564,1021
301615,1023
301666,1023
301716,1023
301767,1023
301817,1023
301869,1023
301919,1023
301970,1023
302020,1023
302071,1023
302121,1020
302172,983
302223,946
302273,939
302324,938
302374,939
302425,939
302476,939
302526,940
302577,942
302627,944
302678,948
302729,950
302779,974
302830,1008
302880,1023
302930,1023
302982,1023
303032,1023
303083,1023
303133,1023
303184,1023
303235,1023
303286,1023
303336,1023
303386,1023
303437,993
303488,957
303539,940
303589,938
303640,937
303690,939
303740,938
303792,939
303842,941
303893,942
303943,947
303993,947
304045,965
304095,999
304146,1023
304196,1023
304246,1023
304297,1023
304348,1023
304399,1023
304449,1023
304500,1023
304550,1023
304602,1023
304652,1023
304702,1006
304753,969
304803,943
304855,939
304905,939
304955,938
305006,937
305056,940
305107,940
305158,942
305208,946
305259,948
305309,954
305360,989
305411,1023
305462,1023
305512,1023
305562,1023
305613,1023
305664,1023
305715,1023
305765,1023
305816,1023
305866,1023
305917,1023
305968,1018
306018,981
306069,946
306119,940
306170,937
306221,938
306271,938
306322,940
306372,939
306423,944
306473,946
306524,949
306575,952
306625,982
306676,1017
306726,1023
306778,1023
306828,1023
306878,1023
306929,1023
306979,1023
307031,1023
307081,1023
307132,1023
307182,1023
307233,1022
307283,983
307334,947
307385,938
307435,938
307486,939
307536,938
307587,939
307638,938
307688,941
307739,945
307789,947
307840,949
307891,973
307941,1006
307992,1023
308042,1023
308092,1023
308144,1023
308194,1023
308245,1023
308295,1023
308346,1023
308397,1023
308448,1023
308498,1023
308549,994
308599,956
308649,941
308701,938
308751,938
308801,939
308852,939
308902,940
308954,941
309004,943
309054,946
309105,950
309155,963
309207,1001
309257,1023
309308,1023
309358,1023
309408,1023
309459,1023
309510,1023
309561,1023
309611,1023
309662,1023
309712,1023
309764,1023
309814,1002
309864,963
309915,941
309965,939
310017,939
310067,940
310117,937
310168,940
310218,940
310269,945
310320,946
310370,949
310421,957
310471,995
310522,1023
310573,1023
310624,1023
310674,1023
310724,1023
310775,1023
310825,1023
310877,1023
310927,1023
310978,1023
311028,1023
311079,1011
311130,974
311180,941
311231,938
311281,939
311332,938
311383,938
311433,940
311484,938
311534,942
311585,945
311635,949
311686,953
311737,990
311787,1022
311838,1023
311888,1023
311940,1023
311990,1023
312040,1023
312091,1023
312141,1023
312193,1023
312243,1023
312294,1023
312344,1017
312395,980
312445,945
312496,940
312547,940
312597,938
312648,939
312698,939
312749,939
312800,942
312850,944
312901,947
312951,951
313001,979
313053,1014
313103,1023
313154,1023
313204,1023
313254,1023
313306,1023
313356,1023
313407,1023
313457,1023
313508,1023
313559,1023
313610,1023
313660,989
313710,948
313761,939
313811,939
313863,939
313913,937
313963,937
314014,941
314064,941
314116,945
314166,946
314216,951
314267,971
314317,1008
314369,1023
314419,1023
314470,1023
314520,1023
314570,1023
314621,1023
314672,1023
314723,1023
314773,1023
314824,1023
314874,1023
314926,994
314976,961
315026,937
315077,940
315127,938
315179,938
315229,938
315279,940
315330,940
315380,943
315431,945
315482,949
315532,961
315583,999
315633,1023
315684,1023
315735,1023
315786,1023
315836,1023
315886,1023
315937,1023
315987,1023
316039,1023
316089,1023
316140,1023
316190,1006
316241,967
316292,942
316342,939
316393,938
316443,939
316494,939
316545,940
316595,940
316646,942
316696,946
316747,950
316797,955
316848,991
316899,1023
316949,1023
317000,1023
317050,1023
317102,1023
317152,1023
317202,1023
317253,1023
317303,1023
317355,1023
317405,1023
317456,1013
317506,976
317557,946
317607,939
317658,940
317709,938
317759,938
317809,936
317860,940
317911,942
317962,946
318012,947
318062,951
318113,981
318163,1015
318215,1023
318265,1023
318316,1023
318366,1023
318417,1023
318468,1023
318518,1023
318569,1023
318619,1023
318670,1023
318721,1023
318772,988
318822,952
318872,939
318923,937
318973,939
319025,940
319075,939
319125,941
319176,942
319226,944
319278,943
319328,950
319378,972
319429,1006
319479,1023
319531,1023
319581,1023
319632,1023
319682,1023
319733,1023
319783,1023
319834,1023
319885,1023
319935,1023
319986,1023
320036,999
320088,963
320138,940
320188,938
320239,939
320289,937
320340,938
320391,939
320441,940
320492,944
320542,945
320593,948
320644,955
320694,991
320745,1023
320795,1023
320846,1023
320897,1023
320947,1023
320998,1023
321048,1023
321099,1023
321149,1023
321201,1023
321251,1023
321302,1017
321352,980
321402,946
321454,939
321504,938
321555,938
321605,937
321655,938
321707,939
321757,941
321808,943
321858,947
321908,950
321959,977
322010,1012
322061,1023
322111,1023
322162,1023
322212,1023
322263,1023
322314,1023
322364,1023
322415,1023
322465,1023
322516,1023
322567,1023
322618,992
322668,956
322718,940
322769,935
322820,938
322871,938
322921,938
322971,938
323022,939
323073,946
323124,947
323174,950
323224,959
323275,996
323325,1023
323377,1023
323427,1023
323477,1023
323528,1023
323578,1023
323630,1023
323680,1023
323731,1023
323781,1023
323832,1023
323883,1012
323933,974
323984,942
324034,937
324085,938
324135,939
324186,938
324237,938
324287,940
324338,943
324388,944
324439,947
324490,952
324540,979
324591,1014
324641,1023
324692,1023
324743,1023
324793,1023
324844,1023
324894,1023
324945,1023
324996,1023
325047,1023
325097,1023
325148,1023
325198,991
325249,951
325300,939
325350,939
325401,939
325451,939
325501,938
325553,940
325603,939
325654,942
325704,946
325754,949
325806,962
325856,996
325907,1023
325957,1023
326007,1023
326059,1023
326109,1023
326160,1023
326210,1023
326261,1023
326311,1023
326363,1023
326413,1023
326463,1012
326514,974
326564,943
326616,939
326666,937
326716,938
326767,939
326817,938
326868,940
326919,943
326969,945
327020,948
327070,951
327121,981
327172,1018
327222,1023
327273,1023
327323,1023
327374,1023
327425,1023
327476,1023
327526,1023
327577,1023
327627,1023
327678,1023
327729,1023
327779,987
327830,950
327880,941
327931,937
327982,939
328032,938
328083,939
328133,939
328184,941
328235,943
328285,947
328336,949
328386,967
328437,1002
328487,1023
328538,1023
328589,1023
328639,1023
328690,1023
328740,1023
328792,1023
328842,1023
328893,1023
328943,1023
328993,1023
329044,1000
329095,960
329146,942
329196,938
329247,939
329297,939
329348,939
329399,940
329449,939
329499,942
329550,946
329601,951
329652,955
329702,993
329752,1023
329803,1023
329853,1023
329905,1023
329955,1023
330006,1023
330056,1023
330107,1023
330158,1023
330208,1023
330259,1023
330309,1013
330360,975
330411,944
330462,938
330512,940
330562,935
330613,938
330663,938
330715,939
330765,942
330815,944
330866,948
330916,950
330968,979
331018,1016
331068,1023
331119,1023
331169,1023
331220,1023
331271,1023
331322,1023
331372,1023
331423,1023
331473,1023
331524,1023
331575,1023
331625,984
331676,948
331726,939
331778,937
331828,939
331878,937
331929,938
331979,940
332029,941
332081,944
332131,947
332182,950
332232,972
332282,1007
332334,1023
332384,1023
332435,1023
332485,1023
332536,1023
332587,1023
332638,1023
332688,1023
332738,1023
332789,1023
332839,1023
332891,994
332941,956
332992,941
333042,939
333092,940
333144,938
333194,940
333245,940
333295,941
333345,945
333396,947
333447,950
333498,962
333548,1000
333598,1023
333649,1023
333700,1023
333751,1023
333801,1023
333852,1023
333902,1023
333954,1023
334004,1023
334054,1023
334105,1023
334155,998
334206,961
334257,945
334308,949
334358,944
334408,942
334459,942
334510,941
334560,943
334611,948
334661,956
334712,959
334763,962
334813,992
334864,1023
334914,1023
334965,1023
335015,1023
335067,1023
335117,1023
335168,1023
335218,1023
335268,1023
335320,1023
335370,1023
335421,1016
335471,975
335522,944
335572,939
335623,936
335674,938
335724,936
335775,939
335825,939
335876,941
335927,945
335977,948
336028,951
336078,977
336129,1015
336180,1023
336230,1023
336281,1023
336331,1023
336382,1023
336433,1023
336483,1023
336534,1023
336584,1023
336635,1023
336686,1023
336737,988
336787,950
336838,940
336888,940
336939,939
336990,935
337040,939
337090,939
337141,943
337191,944
337243,946
337293,950
337343,971
337394,1005
337444,1023
337496,1023
337546,1023
337597,1023
337647,1023
337698,1023
337748,1023
337799,1023
337850,1023
337900,1023
337951,1023
338001,998
338053,963
338103,941
338153,938
338204,938
338254,937
338306,937
338356,939
338406,940
338457,944
338507,945
338558,948
338609,956
338659,994
338710,1023
338760,1023
338811,1023
338862,1023
338913,1023
338963,1023
339013,1023
339064,1023
339115,1023
339166,1023
339216,1023
339267,1014
339317,975
339368,943
339419,939
339469,939
339520,938
339570,937
339620,940
339672,939
339722,943
339773,946
339823,948
339873,952
339924,983
339975,1018
340026,1023
340076,1023
340127,1023
340177,1023
340228,1023
340279,1023
340329,1023
340380,1023
340430,1023
340482,1023
340532,1022
340583,983
340633,950
340683,939
340734,939
340785,938
340836,938
340886,938
340936,940
340987,941
341038,944
341089,946
341139,950
341189,973
341240,1009
341291,1023
341342,1023
341392,1023
341443,1023
341493,1023
341543,1023
341595,1023
341645,1023
341696,1023
341746,1023
341797,1023
341848,994
341899,955
341949,941
341999,940
342050,935
342100,939
342151,937
342202,940
342252,941
342303,944
342353,946
342404,949
342455,966
342505,1000
342556,1023
342606,1023
342658,1023
342708,1023
342758,1023
342809,1023
342859,1023
342910,1023
342961,1023
343012,1023
343062,1023
343113,1003
343163,964
343214,942
343265,940
343315,940
343366,939
343416,937
343467,939
343518,940
343568,940
343619,946
343669,948
343719,961
343771,995
343821,1023
343872,1023
343922,1023
343973,1023
344024,1023
344074,1023
344125,1023
344175,1023
344226,1023
344276,1023
344328,1023
344378,1006
344429,970
344479,943
344529,938
344581,938
344631,939
344682,938
344732,939
344782,938
344834,943
344884,945
344935,948
344985,953
345035,985
345086,1020
345137,1023
345188,1023
345238,1023
345288,1023
345339,1023
345390,1023
345441,1023
345491,1023
345542,1023
345592,1023
345644,1021
345694,983
345744,946
345795,940
345845,938
345896,938
345947,938
345997,939
346048,939
346098,941
346149,945
346200,947
346250,951
346301,976
346351,1011
346402,1023
346452,1023
346504,1023
346554,1023
346604,1023
346655,1023
346705,1023
346757,1023
346807,1023
346858,1023
346908,1023
346959,991
347010,956
347060,940
347111,939
347161,940
347212,938
347262,939
347313,941
347364,942
347414,945
347465,945
347515,949
347566,970
347617,1004
347667,1023
347718,1023
347768,1023
347820,1023
347870,1023
347920,1023
347971,1023
348021,1023
348072,1023
348123,1023
348174,1023
348224,997
348275,962
348325,942
348376,939
348427,939
348477,938
348527,940
348578,940
348628,940
348680,944
348730,945
348780,949
348831,962
348881,997
348933,1023
348983,1023
349034,1023
349084,1023
349134,1023
349186,1023
349236,1023
349287,1023
349337,1023
349388,1023
349438,1023
349490,1006
349540,970
349590,942
349641,940
349691,939
349743,938
349793,937
349843,937
349894,940
349944,943
349996,946
350046,948
350096,957
350147,992
350197,1023
350248,1023
350299,1023
350350,1023
350400,1023
350450,1023
350501,1023
350552,1023
350603,1023
350653,1023
350704,1023
350754,1011
350806,976
350856,944
350906,939
350957,938
351007,939
351058,938
351109,940
351159,939
351210,943
351260,945
351310,948
351362,951
351412,982
351463,1017
351513,1023
351564,1023
351614,1023
351665,1023
351716,1023
351766,1023
351817,1023
351867,1023
351919,1023
351969,1023
352020,1021
352070,984
352120,949
352172,939
352222,939
352273,938
352323,937
352373,940
352424,939
352475,942
352526,944
352576,948
352626,950
352677,976
352728,1010
352779,1023
352829,1023
352880,1023
352930,1023
352980,1023
353032,1023
353082,1023
353133,1023
353183,1023
353234,1023
353285,1023
353336,993
353386,953
353436,937
353487,939
353538,939
353589,937
353639,937
353689,937
353740,941
353790,945
353842,948
353892,947
353942,965
353993,1001
354043,1023
354095,1023
354145,1023
354195,1023
354246,1023
354296,1023
354348,1023
354398,1023
354449,1023
354499,1023
354550,1023
354600,998
354651,963
354702,941
354752,939
354803,937
354853,939
354904,938
354955,940
355005,939
355056,943
355106,946
355156,949
355208,961
355258,997
355309,1023
355359,1023
355410,1023
355461,1023
355511,1023
355562,1023
355612,1023
355663,1023
355714,1023
355765,1023
355815,1023
355866,1007
355916,970
355966,942
356018,939
356068,939
356119,940
356169,938
356219,940
356271,940
356321,944
356372,945
356422,949
356472,954
356524,991
356574,1023
356625,1023
356675,1023
356725,1023
356776,1023
356827,1023
356878,1023
356928,1023
356979,1023
357029,1023
357081,1023
357131,1012
357181,974
357232,945
357282,939
357334,938
357384,938
357434,938
357485,938
357535,939
357586,943
357637,946
357687,950
357738,954
357788,987
357839,1021
357890,1023
357941,1023
357991,1023
358041,1023
358092,1023
358142,1023
358194,1023
358244,1023
358295,1023
358345,1023
358396,1017
358447,980
358497,944
358548,939
358598,938
358649,939
358700,939
358750,938
358801,938
358851,943
358902,946
358952,950
359003,951
359054,978
359104,1011
359155,1023
359205,1023
359257,1023
359307,1023
359357,1023
359408,1023
359458,1023
359510,1023
359560,1023
359611,1023
359661,1023
359712,985
359762,951
359813,939
359864,939
359914,939
359965,939
360015,938
360066,938
360117,940
360167,945
360217,945
360268,948
360318,973
360370,1005
360420,1023
360471,1023
360521,1023
360571,1023
360623,1023
360673,1023
360724,1023
360774,1023
360825,1023
360876,1023
360927,1023
360977,996
361027,959
361078,940
361128,938
361180,937
361230,938
361280,938
361331,940
361381,940
361433,944
361483,947
361533,949
361584,964
361634,998
361686,1023
361736,1023
361786,1023
361837,1023
361887,1023
361938,1023
361989,1023
362040,1023
362090,1023
362141,1023
362191,1023
362243,1005
362293,969
362343,939
362394,939
362444,938
362496,938
362546,938
362596,935
362647,940
362697,943
362748,946
362799,948
362849,954
362900,991
362950,1023
363001,1023
363052,1023
363102,1023
363153,1023
363203,1023
363254,1023
363304,1023
363356,1023
363406,1023
363457,1023
363507,1016
363557,977
363609,946
363659,938
363710,939
363760,939
363810,937
363862,938
363912,941
363963,942
364013,946
364063,945
364114,952
364165,983
364216,1017
364266,1023
364316,1023
364367,1023
364418,1023
364469,1023
364519,1023
364570,1023
364620,1023
364672,1023
364722,1023
364773,1022
364823,985
364873,948
364924,939
364975,940
365026,938
365076,939
365126,937
365177,939
365228,942
365279,946
365329,946
365379,951
365430,972
365480,1007
365532,1023
365582,1023
365632,1023
365683,1023
365733,1023
365785,1023
365835,1023
365886,1023
365936,1023
365987,1023
366038,1023
366088,994
366139,959
366189,940
366240,939
366290,939
366341,940
366392,937
366442,940
366493,942
366543,946
366594,945
366645,949
366695,967
366746,1002
366796,1023
366848,1023
366898,1023
366948,1023
366999,1023
367049,1023
367100,1023
367151,1023
367202,1023
367252,1023
367303,1023
367353,1001
367404,962
367455,942
367505,938
367556,939
367606,939
367656,938
367708,941
367758,940
367809,943
367859,946
367909,950
367961,962
368011,996
368062,1023
368112,1023
368162,1023
368214,1023
368264,1023
368315,1023
368365,1023
368416,1023
368466,1023
368518,1023
368568,1023
368619,1005
368669,969
368719,942
368771,938
368821,939
368872,938
368922,938
368972,940
369024,939
369074,944
369125,945
369175,948
369225,954
369276,989
369327,1023
369378,1023
369428,1023
369478,1023
369529,1023
369580,1023
369631,1023
369681,1023
369732,1023
369782,1023
369833,1023
369884,1016
369934,980
369985,946
370035,940
370086,939
370137,938
370187,940
370238,938
370288,939
370339,944
370390,945
370440,947
370491,952
370541,982
370592,1018
370642,1023
370694,1023
370744,1023
370794,1023
370845,1023
370895,1023
370947,1023
370997,1023
371048,1023
371098,1023
371149,1023
371200,986
371250,947
371301,941
371351,939
371402,939
371452,939
371503,938
371554,939
371604,942
371655,944
371705,948
371756,952
371807,975
371857,1007
371908,1023
371958,1023
372008,1023
372060,1023
372110,1023
372161,1023
372211,1023
372262,1023
372313,1023
372364,1023
372414,1023
372464,994
372515,957
372566,941
372617,935
372667,939
372717,938
372768,939
372818,939
372870,942
372920,944
372970,944
373021,949
373071,970
373123,1010
373173,1023
373224,1023
373274,1023
373324,1023
373376,1023
373426,1023
373477,1023
373527,1023
373578,1023
373628,1023
373680,1023
373730,985
373780,946
373831,938
373881,938
373933,937
373983,937
374033,938
374084,940
374134,942
374185,944
374236,946
374286,949
374337,961
374387,1006
374438,1023
374489,1023
374539,1023
374590,1023
374640,1023
374691,1023
374742,1023
374793,1023
374843,1023
374894,1023
374944,1023
374994,994
375046,951
375096,938
375147,936
375197,938
375247,937
375299,937
375349,937
375400,939
375450,943
375500,945
375552,949
375602,955
375653,992
375703,1023
375754,1023
375804,1023
375855,1023
375906,1023
375956,1023
376007,1023
376057,1023
376109,1023
376159,1023
376210,1023
376260,1020
376310,976
376361,944
376412,939
376463,939
376513,939
376563,938
376614,938
376665,939
376716,943
376766,945
376816,948
376867,951
376918,978
376969,1014
377019,1023
377069,1023
377120,1023
377170,1023
377222,1023
377272,1023
377323,1023
377373,1023
377424,1023
377475,1023
377525,1023
377576,984
377626,949
377677,938
377728,938
377779,939
377829,940
377879,938
377930,938
377980,942
378031,944
378082,947
378132,949
378183,971
378233,1005
378285,1023
378335,1023
378385,1023
378436,1023
378486,1023
378537,1023
378588,1023
378639,1023
378689,1023
378740,1023
378790,1023
378841,996
378892,960
378942,940
378993,938
379043,939
379094,938
379145,939
379195,939
379246,940
379296,943
379346,946
379398,949
379448,959
379499,997
379549,1023
379599,1023
379651,1023
379701,1023
379752,1023
379802,1023
379853,1023
379904,1023
379955,1023
380005,1023
380055,1023
380106,1011
380156,969
380208,943
380258,939
380309,938
380359,937
380409,937
380461,940
380511,940
380562,944
380612,945
380662,949
380713,953
380764,990
380815,1023
380865,1023
380915,1023
380966,1023
381017,1023
381068,1023
381118,1023
381169,1023
381219,1023
381271,1023
381321,1023
381371,1014
381422,976
381472,941
381523,939
381574,939
381625,940
381675,938
381725,938
381776,938
381827,945
381878,945
381928,948
381978,953
382029,984
382080,1019
382131,1023
382181,1023
382231,1023
382282,1023
382332,1023
382384,1023
382434,1023
382485,1023
382535,1023
382586,1023
382637,1021
382687,981
382738,946
382788,940
382839,938
382889,937
382940,938
382991,939
383041,937
383092,944
383142,944
383193,948
383244,952
383294,981
383345,1015
383395,1023
383447,1023
383497,1023
383547,1023
383598,1023
383648,1023
383699,1023
383750,1023
383801,1023
383851,1023
383902,1023
383952,985
384003,948
384054,938
384104,938
384155,938
384205,939
384256,938
384307,939
384357,941
384408,945
384458,947
384508,950
384560,968
384610,1005
384661,1023
384711,1023
384761,1023
384813,1023
384863,1023
384914,1023
384964,1023
385015,1023
385065,1023
385117,1023
385167,1023
385218,997
385268,960
385318,941
385370,937
385420,938
385470,938
385521,937
385571,941
385623,939
385673,944
385723,946
385774,949
385824,960
385875,996
385926,1023
385976,1023
386027,1023
386077,1023
386128,1023
386179,1023
386230,1023
386280,1023
386331,1023
386381,1023
386433,1023
386483,1010
386533,972
386584,942
386634,940
386685,939
386736,936
386786,937
386837,936
386887,939
386938,943
386989,947
387039,948
387090,951
387140,984
387191,1020
387241,1023
387292,1023
387343,1023
387393,1023
387444,1023
387494,1023
387546,1023
387596,1023
387647,1023
387697,1023
387747,1022
387799,983
387849,948
387900,939
387950,936
388000,939
388051,938
388102,937
388153,937
388203,941
388253,944
388304,947
388355,950
388406,974
388456,1008
388507,1023
388557,1023
388608,1023
388659,1023
388709,1023
388760,1023
388810,1023
388861,1023
388912,1023
388963,1023
389013,1023
389063,994
389114,957
389165,940
389216,940
389266,938
389316,939
389367,939
389417,941
389469,940
389519,944
389569,947
389620,947
389670,961
389722,1000
389772,1023
389822,1023
389873,1023
389923,1023
389975,1023
390025,1023
390076,1023
390126,1023
390177,1023
390227,1023
390278,1023
390329,1003
390379,963
390430,940
390480,938
390532,939
390582,938
390632,938
390683,940
390733,939
390785,944
390835,945
390885,949
390936,954
390986,991
391037,1023
391088,1023
391138,1023
391189,1023
391239,1023
391290,1023
391341,1023
391392,1023
391442,1023
391493,1023
391543,1023
391593,1015
391645,977
391695,943
391746,939
391796,938
391846,939
391898,937
391948,938
391999,939
392049,942
392099,945
392151,948
392201,951
392252,982
392302,1016
392352,1023
392403,1023
392454,1023
392505,1023
392555,1023
392606,1023
392656,1023
392708,1023
392758,1023
392809,1023
392859,1023
392909,981
392961,946
393011,940
393062,939
393112,938
393162,938
393213,939
393264,939
393315,941
393365,944
393415,946
393466,952
393517,975
393568,1012
393618,1023
393668,1023
393719,1023
393769,1023
393821,1023
393871,1023
393922,1023
393972,1023
394023,1023
394074,1023
394124,1023
394175,988
394225,955
394276,938
394327,940
394378,938
394428,939
394478,938
394529,940
394579,940
394630,944
394681,946
394731,950
394782,967
394832,1007
394884,1023
394934,1023
394984,1023
395035,1023
395085,1023
395137,1023
395187,1023
395238,1023
395288,1023
395339,1023
395389,1023
395440,994
395491,957
395541,940
395592,937
395642,938
395693,938
395744,937
395794,939
395845,940
395895,944
395945,945
395997,950
396047,965
396098,1001
396148,1023
396198,1023
396250,1023
396300,1023
396351,1023
396401,1023
396452,1023
396503,1023
396554,1023
396604,1023
396655,1023
396705,999
396755,962
396807,941
396857,938
396908,938
396958,937
397008,938
397060,941
397110,939
397161,944
397211,946
397261,948
397313,959
397363,998
397414,1023
397464,1023
397514,1023
397565,1023
397616,1023
397667,1023
397717,1023
397768,1023
397818,1023
397870,1023
397920,1023
397970,1006
398021,968
398071,942
398123,937
398173,939
398223,939
398274,937
398324,939
398375,939
398426,943
398476,944
398527,948
398577,954
398628,991
398679,1023
398730,1023
398780,1023
398830,1023
398881,1023
398931,1023
398983,1023
399033,1023
399084,1023
399134,1023
399185,1023
399236,1012
399286,971
399337,942
399387,939
399438,939
399489,938
399539,937
399590,938
399640,939
399691,944
399741,945
399792,948
399843,953
399893,987
399944,1023
399994,1023
400046,1023
400096,1023
400146,1023
400197,1023
400247,1023
400299,1023
400349,1023
400400,1023
400450,1023
400501,1016
400551,977
400602,943
400653,938
400703,938
400754,938
400804,938
400855,938
400906,939
400956,942
401007,946
401057,947
401107,951
401159,978
401209,1015
401260,1023
401310,1023
401360,1023
401412,1023
401462,1023
401513,1023
401563,1023
401614,1023
401665,1023
401716,1023
401766,1023
401816,986
401867,948
401917,938
401969,936
402019,939
402069,936
402120,939
402170,940
402222,940
402272,944
402322,946
402373,950
402423,972
402475,1009
402525,1023
402576,1023
402626,1023
402676,1023
402727,1023
402778,1023
402829,1023
402879,1023
402930,1023
402980,1023
403032,1023
403082,992
403132,953
403183,939
403233,939
403284,939
403335,935
403385,938
403436,939
403486,941
403537,944
403588,946
403638,950
403689,964
403739,1001
403790,1023
403841,1023
403891,1023
403942,1023
403992,1023
404043,1023
404093,1023
404145,1023
404195,1023
404246,1023
404296,1023
404347,997
404398,964
404448,940
404499,939
404549,936
404599,938
404651,938
404701,937
404752,939
404802,945
404852,946
404903,949
404954,956
405005,994
405055,1023
405105,1023
405156,1023
405207,1023
405258,1023
405308,1023
405359,1023
405409,1023
405460,1023
405511,1023
405562,1023
405612,1013
405662,973
405713,944
405764,938
405815,939
405865,937
405915,939
405966,939
406017,940
406068,941
406118,945
406168,945
406219,952
406269,981
406321,1017
406371,1023
406421,1023
406472,1023
406522,1023
406574,1023
406624,1023
406675,1023
406725,1023
406776,1023
406827,1023
406877,1023
406928,982
406978,947
407029,939
407079,939
407130,938
407181,939
407231,938
407282,940
407332,942
407384,946
407434,948
407484,951
407535,973
407585,1009
407636,1023
407687,1023
407737,1023
407788,1023
407838,1023
407889,1023
407940,1023
407991,1023
408041,1023
408092,1023
408142,1023
408193,992
408244,955
408294,940
408345,938
408395,938
408445,938
408497,938
408547,941
408598,940
408648,944
408698,946
408750,949
408800,963
408851,999
408901,1023
408951,1023
409003,1023
409053,1023
409104,1023
409154,1023
409205,1023
409255,1023
409307,1023
409357,1023
409408,1023
409458,1004
409508,967
409560,942
409610,937
409661,940
409711,939
409761,937
409812,939
409863,939
409914,943
409964,945
410014,948
410065,954
410116,989
410167,1023
410217,1023
410267,1023
410318,1023
410369,1023
410420,1023
410470,1023
410521,1023
410571,1023
410622,1023
410673,1023
410723,1015
410774,977
410824,944
410875,938
410926,939
410976,938
411027,938
411077,938
411128,939
411179,942
411229,945
411280,949
411330,952
411381,980
411431,1017
411482,1023
411533,1023
411583,1023
411634,1023
411684,1023
411736,1023
411786,1023
411837,1023
411887,1023
411938,1023
411988,1023
412039,984
412090,947
412140,939
412191,940
412241,938
412292,939
412343,938
412393,940
412444,941
412494,945
412545,947
412596,950
412646,972
412697,1008
412747,1023
412797,1023
412849,1023
412899,1023
412950,1023
413000,1023
413051,1023
413102,1023
413153,1023
413203,1023
413253,1023
413304,995
413355,958
413406,941
413456,940
413506,939
413557,941
413607,935
413659,940
413709,939
413759,944
413810,948
413860,948
413912,962
413962,998
414012,1023
414063,1023
414113,1023
414164,1023
414215,1023
414266,1023
414316,1023
414367,1023
414417,1023
414468,1023
414519,1023
414569,1001
414620,967
414670,943
414722,938
414772,939
414822,939
414873,939
414923,941
414974,937
415025,943
415075,946
415126,948
415176,954
415227,988
415278,1022
415328,1023
415379,1023
415429,1023
415480,1023
415531,1023
415582,1023
415632,1023
415683,1023
415733,1023
415783,1023
415835,1018
415885,977
415936,945
415986,940
416037,941
416088,939
416138,939
416189,939
416239,940
416289,943
416340,946
416391,948
416442,952
416492,979
416542,1016
416593,1023
416644,1023
416695,1023
416745,1023
416796,1023
416846,1023
416898,1023
416948,1023
416998,1023
417049,1023
417099,1023
417150,987
417201,950
417252,941
417302,939
417352,939
417403,938
417454,939
417505,939
417555,940
417605,944
417656,948
417707,950
417758,967
417808,1004
417858,1023
417909,1023
417959,1023
418011,1023
418061,1023
418112,1023
418162,1023
418213,1023
418264,1023
418314,1023
418365,1023
418415,998
418466,964
418516,942
418567,938
418618,938
418668,939
418719,938
418769,939
418820,940
418871,943
418921,945
418972,949
419022,956
419073,991
419124,1023
419174,1023
419225,1023
419275,1023
419326,1023
419377,1023
419428,1023
419478,1023
419528,1023
419579,1023
419630,1023
419681,1013
419731,976
419782,943
419832,939
419883,939
419934,940
419984,938
420035,938
420085,939
420135,943
420187,947
420237,948
420288,949
420338,977
420388,1012
420440,1023
420490,1023
420541,1023
420591,1023
420642,1023
420692,1023
420743,1023
420794,1023
420844,1023
420895,1023
420945,1023
420997,991
421047,953
421098,941
421148,936
421198,939
421250,939
421300,939
421350,941
421401,939
421451,943
421502,946
421553,949
421603,962
421654,1000
421704,1023
421755,1023
421806,1023
421857,1023
421907,1023
421958,1023
422008,1023
422059,1023
422110,1023
422160,1023
422211,1023
422261,996
422312,954
422363,940
422413,937
422464,937
422514,935
422565,936
422616,938
422666,939
422717,942
422767,945
422818,948
422868,953
422919,990
422970,1023
423020,1023
423071,1023
423121,1023
423173,1023
423223,1023
423273,1023
423324,1023
423374,1023
423426,1023
423476,1023
423527,1020
423577,973
423628,942
423678,939
423729,937
423780,939
423830,938
423880,939
423931,940
423982,939
424033,944
424083,948
424133,950
424184,969
424235,1010
424286,1023
424336,1023
424387,1023
424437,1023
424487,1023
424539,1023
424589,1023
424640,1023
424690,1023
424741,1023
424792,1023
424843,1000
424893,962
424943,942
424994,937
425044,940
425096,937
425146,938
425196,940
425247,938
425297,943
425349,947
425399,949
425449,955
425500,995
425550,1023
425602,1023
425652,1023
425703,1023
425753,1023
425803,1023
425854,1023
425905,1023
425956,1023
426006,1023
426057,1023
426107,1018
426159,977
426209,944
426259,939
426310,940
426360,939
426412,939
426462,938
426512,940
426563,943
426613,946
426664,949
426715,952
426765,974
426816,1010
426866,1023
426917,1023
426968,1023
427019,1023
427069,1023
427119,1023
427170,1023
427220,1023
427272,1023
427322,1023
427373,1023
427423,996
427473,960
427525,940
427575,937
427626,938
427676,938
427726,938
427778,938
427828,938
427879,944
427929,946
427979,948
428030,956
428081,993
428132,1023
428182,1023
428233,1023
428283,1023
428334,1023
428385,1023
428435,1023
428486,1023
428536,1023
428588,1023
428638,1023
428689,1017
428739,978
428789,946
428840,938
428891,939
428942,938
428992,938
429042,939
429093,940
429144,943
429195,945
429245,947
429295,951
429346,972
429396,1009
429448,1023
429498,1023
429548,1023
429599,1023
429649,1023
429701,1023
429751,1023
429802,1023
429852,1023
429903,1023
429954,1023
430005,998
430055,962
430105,940
430156,939
430206,940
430257,939
430308,936
430358,939
430409,940
430459,944
430510,945
430561,948
430611,952
430662,990
430712,1023
430763,1023
430814,1023
430864,1023
430915,1023
430965,1023
431016,1023
431067,1023
431118,1023
431168,1023
431219,1023
431269,1022
431320,980
431371,947
431421,939
431472,939
431522,939
431572,938
431624,938
431674,938
431725,939
431775,945
431825,948
431877,948
431927,969
431978,1005
432028,1023
432078,1023
432130,1023
432180,1023
432231,1023
432281,940
432332,944
432382,946
432433,948
432484,951
432534,954
432585,978
432635,1010
432686,1023
432737,1023
432787,1023
432838,1023
432888,1023
432940,1023
432990,1023
433041,1023
433091,1023
433141,1023
433192,1023
433243,997
433294,964
433344,941
433395,941
433445,941
433496,941
433547,944
433597,944
433648,945
433698,948
433748,950
433800,952
433850,957
433901,992
433951,1023
434001,1023
434053,1023
434103,1023
434154,1023
434204,1023
434255,1023
434306,1023
434356,1023
434407,1023
434457,1023
434508,1020
434558,984
434610,950
434660,940
434710,939
434761,941
434811,941
434863,944
434913,945
434963,945
435014,950
435064,951
435116,955
435166,976
435216,1009
435267,1023
435317,1023
435368,1023
435419,1023
435470,1023
435520,1023
435571,1023
435621,1023
435673,1023
435723,1023
435773,1023
435824,998
435874,965
435926,943
435976,942
436026,940
436077,938
436127,943
436178,944
436229,944
436279,948
436330,950
436380,953
436431,959
436482,990
436532,1021
436583,1023
436633,1023
436684,1023
436734,1023
436786,1023
436836,1023
436887,1023
436937,1023
436987,1023
437039,1023
437089,1020
437140,983
437190,949
437241,940
437292,940
437342,941
437393,941
437443,943
437494,944
437544,946
437595,949
437646,950
437696,954
437747,974
437797,1007
437848,1023
437899,1023
437949,1023
438000,1023
438050,1023
438102,1023
438152,1023
438202,1023
438253,1023
438303,1023
438354,1023
438405,1001
438456,967
438506,942
438557,937
438607,941
438658,940
438709,942
438759,944
438809,943
438860,949
438910,948
438962,952
439012,958
439062,990
439113,1020
439163,1023
439215,1023
439265,1023
439316,1023
439366,1023
439417,1023
439468,1023
439518,1023
439569,1023
439619,1023
439670,1021
439720,985
439772,950
439822,942
439872,940
439923,940
439973,941
440025,1023
440075,1023
440126,1023
440176,1023
440226,1023
440278,1023
440328,1009
440379,971
440429,941
440480,939
440530,939
440581,938
440632,937
440682,938
440733,938
440783,942
440834,944
440885,947
440935,950
440986,979
441036,1014
441086,1023
441138,1023
441188,1023
441239,1023
441289,1023
441340,1023
441391,1023
441441,1023
441492,1023
441542,1023
441593,1023
441644,993
441695,957
441745,941
441795,937
441846,937
441896,939
441948,938
441998,938
442048,940
442099,943
442149,946
442201,948
442251,956
442301,992
442352,1023
442402,1023
442454,1023
442504,1023
442555,1023
442605,1023
442656,1023
442706,1023
442757,1023
442808,1023
442858,1023
442909,1019
442959,980
443011,946
443061,940
443111,938
443162,939
443212,938
443264,938
443314,940
443364,944
443415,944
443465,946
443516,950
443567,969
443617,1005
443668,951
443718,936
443769,938
443820,936
443870,939
443921,943
443971,943
444022,944
444072,947
444123,949
444174,954
444224,961
444275,994
444325,1023
444376,1023
444427,1023
444477,1023
444528,1023
444578,1023
444630,1023
444680,1023
444730,1023
444781,1023
444831,1023
444882,1020
444933,985
444984,950
445034,942
445084,941
445135,942
445186,942
445237,944
445287,944
445337,947
445388,948
445438,951
445490,953
445540,967
445590,1002
445641,1023
445691,1023
445743,1023
445793,1023
445844,1023
445894,1023
445945,1023
445996,1023
446046,1023
446097,1023
446147,1023
446198,1009
446248,972
446300,944
446350,939
446400,940
446451,940
446501,941
446553,945
446603,944
446653,947
446704,950
446754,951
446806,957
446856,982
446906,1017
446957,1023
447007,1023
447058,1023
447109,1023
447160,1023
447210,1023
447261,1023
447311,1023
447362,1023
447413,1023
447463,1023
447514,993
447564,960
447616,943
447666,940
447716,940
447767,938
447817,944
447868,944
447919,943
447969,947
448020,951
448070,953
448121,964
448172,996
448222,1023
448273,1023
448323,1023
448374,1023
448424,1023
448476,1023
448526,1023
448577,1023
448627,1023
448677,1023
448729,1023
448779,1015
448830,978
448880,947
448931,940
448982,940
449032,942
449083,942
449133,944
449184,944
449234,946
449285,949
449336,950
449386,954
449437,974
449487,1005
449538,1023
449589,1023
449639,1023
449690,1023
449740,1023
449792,1023
449842,1023
449893,1023
449943,1023
449993,1023
450044,1023
450095,1002
450146,965
450196,943
450247,941
450297,941
450348,940
450399,942
450449,943
450500,945
450550,947
450600,949
450652,953
450702,959
450752,990
450803,1021
450853,1023
450905,1023
450955,1023
451006,1023
451056,1023
451107,1023
451158,1023
451208,1023
451259,1023
451309,1023
451360,1020
451410,987
451462,950
451512,941
451562,940
451613,941
451663,940
451715,943
451765,944
451815,946
451866,948
451916,950
451968,953
452018,970
452068,1003
452119,1023
452169,1023
452220,1023
452271,1023
452322,1023
452372,1023
452423,1023
452473,1023
452524,1023
452575,1023
452625,1023
452676,1003
452726,967
452777,941
452828,941
452878,940
452929,941
452979,943
453030,943
453081,945
453131,948
453182,949
453232,953
453283,959
453334,991
453384,1021
453435,1023
453485,1023
453536,1023
453586,1023
453638,1023
453688,1023
453739,1023
453789,1023
453839,1023
453891,1023
453941,1018
453992,981
454042,948
454093,941
454144,940
454194,940
454245,941
454295,943
454346,945
454396,949
454447,948
454498,951
454548,954
454599,975
454649,1005
454700,1023
454751,1023
454801,1023
454852,1023
454902,1023
454953,1023
455004,1023
455054,1023
455105,1023
455155,1023
455206,1023
455257,1000
455308,961
455358,942
455409,940
455459,941
455510,941
455561,943
455611,944
455661,945
455712,946
455762,949
455814,953
455864,962
455914,993
455965,1023
456015,1023
456067,1023
456117,1023
456168,1023
456218,1023
456269,1023
456320,1023
456370,1023
456421,1023
456471,1023
456522,1016
456572,978
456624,946
456674,939
456724,940
456775,940
456825,941
456877,943
456927,945
456977,946
457028,948
457078,951
457129,956
457180,979
457230,1012
457281,1023
457331,1023
457382,1023
457433,1023
457484,1023
457534,1023
457585,1023
457635,1023
457686,1023
457737,1023
457787,1023
457838,994
457888,959
457939,942
457990,940
458040,942
458091,940
458141,943
458192,944
458243,945
458293,948
458344,950
458394,953
458445,964
458496,996
458546,1023
458597,1023
458647,1023
458698,1023
458748,1023
458800,1023
458850,1023
458900,1023
458951,1023
459001,1023
459053,1023
459103,1013
459154,977
459204,947
459254,940
459305,941
459356,940
459407,942
459457,943
459507,945
459558,945
459609,949
459660,951
459710,956
459760,982
459811,1014
459862,1023
459913,1023
459963,1023
460014,1023
460064,1023
460115,1023
460166,1023
460216,1023
460267,1023
460317,1023
460368,1023
460419,992
460470,958
460520,942
460570,941
460621,940
460672,941
460723,942
460773,944
460823,945
460874,948
460924,950
460976,954
461026,967
461076,1000
461127,1023
461177,1023
461229,1023
461279,1023
461330,1023
461380,1023
461431,1023
461481,1023
461532,1023
461583,1023
461633,1023
461684,1006
461734,972
461786,944
461836,940
461886,940
461937,940
461987,941
462039,943
462089,944
462139,946
462190,949
462240,951
462291,955
462342,982
462392,1016
462443,1023
462493,1023
462544,1023
462595,1023
462646,1023
462696,1023
462746,1023
462797,1023
462848,1023
462899,1023
462949,1023
463000,991
463050,955
463101,941
463152,942
463202,940
463253,942
463303,944
463354,943
463405,945
463455,947
463506,951
463556,952
463606,964
463657,996
463708,1023
463759,1023
463809,1023
463860,1023
463910,1023
463962,1023
464012,1023
464062,1023
464113,1023
464163,1023
464215,1023
464265,1015
464316,980
464366,947
464416,940
464467,939
464518,940
464569,943
464619,944
464669,944
464720,945
464771,948
464822,950
464872,954
464922,974
464973,1008
465024,1023
465075,1023
465125,1023
465176,1023
465226,1023
465276,1023
465328,1023
465378,1023
465429,1023
465479,1023
465530,1023
465581,1003
465632,967
465682,943
465732,940
465783,940
465833,939
465885,944
465935,943
465985,944
466036,947
466086,949
466138,952
466188,957
466238,984
466289,1017
466339,1023
466391,1023
466441,1023
466492,1023
466542,1023
466592,1023
466643,1023
466694,1023
466745,1023
466795,1023
466846,1023
466896,991
466947,956
466998,943
467048,941
467099,940
467149,941
467200,942
467251,946
467301,944
467352,947
467402,950
467452,951
467504,962
467554,995
467605,1023
467655,1023
467706,1023
467757,1023
467807,1023
467858,1023
467908,1023
467959,1023
468009,1023
468061,1023
468111,1023
468162,1018
468212,983
468262,947
468314,940
468364,942
468415,939
468465,942
468515,945
468567,943
468617,947
468668,948
468718,950
468768,954
468819,971
468870,1002
468921,1023
468971,1023
469022,1023
469072,1023
469123,1023
469174,1023
469224,1023
469275,1023
469325,1023
469377,1023
469427,1023
469478,1008
469528,972
469578,945
469629,940
469680,940
469731,941
469781,941
469831,943
469882,945
469933,946
469984,951
470034,951
470084,956
470135,979
470185,1012
470237,1023
470287,1023
470338,1023
470388,1023
470438,1023
470490,1023
470540,1023
470591,1023
470641,1023
470692,1023
470743,1023
470794,1001
470844,964
470894,942
470945,937
470995,940
471047,940
471097,943
471147,944
471198,943
471248,948
471300,948
471350,953
471400,957
471451,988
471501,1019
471553,1023
471603,1023
471653,1023
471704,1023
471754,1023
471805,1023
471856,1023
471907,1023
471957,1023
472008,1023
472058,1023
472110,992
472160,958
472210,943
472261,941
472311,939
472363,941
472413,942
472463,945
472514,943
472564,947
472614,950
472666,952
472716,960
472767,991
472817,1023
472868,1023
472919,1023
472969,1023
473020,1023
473070,1023
473121,1023
473171,1023
473223,1023
473273,1023
473324,1023
473374,1023
473424,991
473476,956
473526,942
473577,940
473627,941
473677,938
473729,943
473779,944
473830,945
473880,947
473930,947
473981,952
474032,960
474083,992
474133,1023
474183,1023
474234,1023
474285,1023
474336,1023
474386,1023
474437,1023
474487,1023
474539,1023
474589,1023
474639,1023
474690,1023
474740,988
474791,952
474842,941
474893,940
474943,941
474993,941
475044,941
475095,946
475146,944
475196,948
475246,950
475297,953
475347,960
475399,996
475449,1023
475499,1023
475550,1023
475600,1023
475652,1023
475702,1023
475753,1023
475803,1023
475853,1023
475905,1023
475955,1023
476006,1021
476056,986
476107,951
476157,941
476208,939
476259,941
476309,940
476360,944
476410,944
476461,946
476512,947
476562,951
476613,953
476663,964
476713,997
476765,1023
476815,1023
476866,1023
476916,1023
476967,1023
477018,1023
477069,1023
477119,1023
477169,1023
477220,1023
477271,1023
477322,1020
477372,984
477423,950
477473,941
477523,937
477575,940
477625,940
477676,942
477726,945
477776,945
477828,949
477878,950
477929,954
477979,967
478029,1002
478081,1023
478131,1023
478182,1023
478232,1023
478283,1023
478333,1023
478385,1023
478435,1023
478485,1023
478536,1023
478586,1023
478638,1013
478688,978
478739,946
478789,942
478839,940
478891,942
478941,941
478992,943
479042,944
479092,947
479143,948
479194,950
479245,955
479295,974
479345,1008
479396,1023
479447,1023
479498,1023
479548,1023
479599,1023
479649,1023
479700,1023
479751,1023
479802,1023
479852,1023
479902,1023
479953,1007
480004,971
480055,944
480105,940
480155,940
480206,941
480257,940
480308,943
480358,944
480408,946
480459,948
480509,951
480561,954
480611,975
480661,1008
480712,1023
480762,1023
480814,1023
480864,1023
480915,1023
480965,1023
481016,1023
481067,1023
481117,1023
481168,1023
481218,1023
481269,1006
481319,970
481371,944
481421,940
481471,939
481522,939
481572,942
481624,943
481674,944
481724,947
481775,948
481825,951
481876,955
481927,977
481977,1010
482028,1023
482078,1023
482129,1023
482180,1023
482231,1023
482281,1023
482332,1023
482382,1023
482433,1023
482484,1023
482534,1023
482585,1006
482635,970
482686,945
482737,941
482787,940
482838,942
482888,942
482939,943
482990,944
483040,946
483091,948
483141,951
483192,955
483243,977
483293,1010
483344,1023
483394,1023
483445,1023
483495,1023
483547,1023
483597,1023
483648,1023
483698,1023
483748,1023
483800,1023
483850,1023
483901,1008
483951,972
484002,943
484052,940
484103,940
484154,938
484204,941
484255,943
484305,943
484356,947
484407,948
484457,950
484508,954
484558,973
484609,1007
484660,1023
484710,1023
484761,1023
484811,1023
484862,1023
484913,1023
484964,1023
485014,1023
485064,1023
485115,1023
485166,1023
485217,1011
485267,975
485318,945
485368,940
485419,941
485470,941
485520,941
485571,943
485621,945
485671,945
485723,948
485773,950
485824,954
485874,972
485924,1004
485976,1023
486026,1023
486077,1023
486127,1023
486178,1023
486228,1023
486280,1023
486330,1023
486380,1023
486431,1023
486481,1023
486533,1016
486583,979
486634,947
486684,940
486734,941
486786,940
486836,941
486887,942
486937,944
486987,946
487038,948
487089,950
487140,953
487190,966
487240,997
487291,1023
487342,1023
487393,1023
487443,1023
487494,1023
487544,1023
487595,1023
487646,1023
487696,1023
487747,1023
487797,1023
487848,1023
487899,989
487950,953
488000,940
488050,939
488101,940
488152,940
488203,942
488253,944
488303,945
488354,947
488404,949
488456,952
488506,957
488556,985
488607,1016
488657,1023
488709,1023
488759,1023
488809,1023
488860,1023
488910,1023
488962,1023
489012,1023
489063,1023
489113,1023
489164,1023
489214,1003
489266,967
489316,943
489366,940
489417,941
489467,940
489518,939
489569,943
489619,943
489670,947
489720,948
489771,950
489822,954
489872,976
489923,1008
489973,1023
490024,1023
490075,1023
490125,1023
490176,1023
490226,1023
490277,1023
490328,1023
490379,1023
490429,1023
490480,1023
490530,1011
490580,976
490632,945
490682,940
490733,942
490783,938
490833,941
490885,942
490935,943
490986,946
491036,948
491086,950
491138,954
491188,968
491239,1001
491289,1023
491340,1023
491390,1023
491441,1023
491492,1023
491542,1023
491593,1023
491643,1023
491695,1023
491745,1023
491796,1023
491846,1020
491896,984
491948,950
491998,940
492049,941
492099,940
492149,942
492200,938
492251,944
492302,944
492352,948
492402,949
492453,952
492504,959
492555,1001
492605,978
492655,946
492706,941
492756,940
492808,939
492858,938
492908,936
492959,939
493009,941
493061,943
493111,945
493161,950
493212,966
493262,1002
493314,1023
493364,1023
493415,1023
493465,1023
493515,1023
493566,1023
493617,1023
493668,1023
493718,1023
493769,1023
493819,1023
493871,1020
493921,982
493971,946
494022,937
494072,939
494124,939
494174,939
494224,937
494275,937
494325,939
494376,942
494427,946
494477,948
494528,954
494578,988
494629,1022
494680,1023
494730,1023
494781,1023
494831,1023
494882,1023
494932,1023
494984,1023
495034,1023
495085,1023
495135,1023
495185,1023
495237,1000
495287,960
495338,942
495388,937
495439,938
495490,937
495540,936
495591,939
495641,938
495692,943
495742,944
495793,948
495844,950
495894,976
495945,1009
495995,1023
496046,1023
496097,1023
496147,1023
496198,1023
496248,1023
496300,1023
496350,1023
496401,1023
496451,1023
496501,1023
496552,1012
496603,973
496654,944
496704,940
496755,937
496805,938
496856,938
496907,938
496957,938
497008,940
497058,944
497108,945
497160,949
497210,957
497260,995
497311,1023
497361,1023
497413,1023
497463,1023
497514,1023
497564,1023
497615,1023
497666,1023
497716,1023
497767,1023
497817,1023
497868,1023
497918,991
497970,955
498020,940
498070,939
498121,938
498171,938
498223,937
498273,939
498323,939
498374,942
498424,945
498476,948
498526,950
498576,980
498627,1014
498677,1023
498728,1023
498779,1023
498830,1023
498880,1023
498931,1023
498981,1023
499032,1023
499083,1023
499133,1023
499184,1023
499234,1007
499286,968
499336,941
499386,936
499437,937
499487,937
499538,938
499589,938
499639,938
499690,942
499740,944
499791,946
499842,949
499892,966
499943,1002
499993,1023
500044,1023
500094,1023
500146,1023
500196,1023
500247,1023
500297,1023
500347,1023
500399,1023
500449,1023
500500,1023
500550,1020
500601,982
500652,948
500702,939
500753,938
500803,938
500854,937
500904,939
500955,939
501006,940
501056,944
501107,946
501157,948
501208,955
501259,990
501309,1023
501360,1023
501410,1023
501462,1023
501512,1023
501562,1023
501613,1023
501663,1023
501714,1023
501765,1023
501816,1023
501866,1023
501917,998
501967,963
502018,942
502069,939
502119,939
502170,938
502220,939
502270,938
502322,940
502372,942
502423,944
502473,946
502523,950
502575,970
502625,1006
502676,1023
502726,1023
502776,1023
502828,1023
502878,1023
502929,1023
502979,1023
503030,1023
503080,1023
503132,1023
503182,1023
503232,1018
503283,980
503333,946
503385,939
503435,939
503486,938
503536,939
503586,937
503638,940
503688,940
503738,945
503789,943
503839,949
503890,957
503941,993
503991,1023
504042,1023
504092,1023
504143,1023
504194,1023
504245,1023
504295,1023
504346,1023
504396,1023
504448,1023
504498,1023
504548,1023
504599,998
504649,963
504700,947
504751,941
504801,939
504852,937
504902,938
504953,938
505004,939
505054,944
505105,949
505155,953
505206,960
505256,974
505307,1010
505358,1023
505408,1023
505459,1023
505509,1023
505561,1023
505611,1023
505662,1023
505712,1023
505762,1023
505814,1023
505864,1023
505915,1019
505965,980
506016,944
506066,939
506117,935
506168,939
506218,938
506269,938
506319,938
506370,941
506421,943
506471,945
506522,949
506572,957
506622,996
506674,1023
506724,1023
506775,1023
506825,1023
506876,1023
506927,1023
506978,1023
507028,1023
507078,1023
507129,1023
507180,1023
507231,1023
507281,995
507332,959
507382,940
507432,938
507484,937
507534,937
507585,937
507635,938
507685,939
507737,943
507787,945
507838,946
507888,951
507938,978
507990,1012
508040,1023
508091,1023
508141,1023
508192,1023
508242,1023
508293,1023
508344,1023
508394,1023
508445,1023
508495,1023
508547,1023
508597,1012
508648,974
508698,943
508748,940
508800,938
508850,937
508901,937
508951,938
509001,935
509052,940
509103,944
509154,946
509204,948
509254,964
509305,998
509356,1023
509407,1023
509457,1023
509508,1023
509558,1023
509608,1023
509660,1023
509710,1023
509761,1023
509811,1023
509862,1023
509913,1023
509964,973
510014,942
510064,935
510115,930
510166,936
510217,935
510267,938
510317,938
510368,938
510418,942
510470,944
510520,948
510570,954
510621,993
510671,1023
510723,1023
510773,1023
510824,1023
510874,1023
510924,1023
510976,1023
511026,1023
511077,1023
511127,1023
511178,1023
511228,1023
511280,993
511330,952
511380,937
511431,939
511481,937
511533,937
511583,938
511633,939
511684,940
511734,941
511785,944
511836,946
511886,950
511937,971
511987,1013
512038,1023
512089,1023
512140,1023
512190,1023
512240,1023
512291,1023
512342,1023
512393,1023
512443,1023
512494,1023
512544,1023
512595,1023
512646,985
512696,948
512747,939
512797,938
512848,939
512899,938
512949,938
513000,937
513050,940
513101,944
513152,947
513202,948
513253,952
513303,983
513354,1013
513404,1023
513455,1023
513506,1023
513556,1023
513607,1023
513657,1023
513709,1023
513759,1023
513810,1023
513860,1023
513910,1023
513961,1008
514012,971
514063,941
514113,937
514164,939
514214,939
514265,938
514316,939
514366,937
514417,940
514467,944
514518,947
514569,950
514619,959
514670,998
514720,1023
514770,1023
514822,1023
514872,1023
514923,1023
514973,1023
515024,1023
515075,1023
515125,1023
515176,1023
515226,1023
515277,1023
515328,993
515379,958
515429,941
515479,937
515530,939
515580,939
515632,937
515682,938
515732,935
515783,942
515833,945
515885,947
515935,950
515985,977
516036,1011
516086,1023
516137,1023
516188,1023
516239,1023
516289,1023
516340,1023
516390,1023
516441,1023
516492,1023
516542,1023
516593,1023
516643,1015
516695,976
516745,946
516795,940
516846,939
516896,940
516947,937
516998,938
517048,939
517099,940
517149,943
517200,946
517251,949
517301,957
517352,992
517402,1023
517453,1023
517504,1023
517555,1023
517605,1023
517655,1023
517706,1023
517756,1023
517808,1023
517858,1023
517909,1023
517959,1023
518010,1000
518061,962
518111,940
518162,938
518212,938
518263,938
518313,936
518364,938
518415,939
518465,941
518516,944
518566,948
518617,950
518668,970
518718,1005
518769,1023
518819,1023
518870,1023
518921,1023
518971,1023
519022,1023
519072,1023
519123,1023
519174,1023
519225,1023
519275,1023
519325,1020
519376,983
519427,947
519478,941
519528,939
519578,939
519629,938
519680,937
519731,941
519781,942
519831,943
519882,946
519932,947
519984,953
520034,986
520084,1021
520135,1023
520185,1023
520237,1023
520287,1023
520338,1023
520388,1023
520439,1023
520489,1023
520540,1023
520591,1023
520641,1023
520692,1003
520742,966
520794,942
520844,940
520894,938
520945,937
520995,937
521047,939
521097,940
521147,941
521198,944
521248,947
521299,949
521350,969
521400,1004
521451,1023
521501,1023
521552,1023
521603,1023
521654,1023
521704,1023
521755,1023
521805,1023
521856,1023
521907,1023
521957,1023
522008,1020
522058,985
522109,947
522160,940
522210,937
522261,939
522311,938
522362,939
522413,939
522463,939
522514,945
522564,946
522615,949
522665,953
522716,988
522767,1023
522817,1023
522868,1023
522918,1023
522970,1023
523020,1023
523071,1023
523121,1023
523171,1023
523223,1023
523273,1023
523324,1023
523374,1001
523425,967
523475,941
523526,940
523577,937
523627,938
523678,938
523728,939
523779,941
523830,943
523880,945
523931,947
523981,950
524032,969
524083,1004
524133,1023
524184,1023
524234,1023
524285,1023
524336,1023
524386,1023
524437,1023
524487,1023
524538,1023
524589,1023
524640,1023
524690,1020
524741,982
524791,947
524841,939
524893,938
524943,938
524994,938
525044,937
525094,939
525146,939
525196,943
525247,946
525297,947
525347,953
525399,988
525449,1021
525500,1023
525550,1023
525600,1023
525651,1023
525702,1023
525753,1023
525803,1023
525854,1023
525904,1023
525956,1023
526006,1023
526057,1000
526107,964
526157,940
526209,939
526259,938
526310,939
526360,939
526410,939
526461,938
526512,943
526563,944
526613,947
526663,950
526714,970
526765,1004
526816,1023
526866,1023
526916,1023
526967,1023
527017,1023
527069,1023
527119,1023
527170,1023
527220,1023
527271,1023
527322,1023
527372,1019
527423,981
527473,947
527524,940
527575,939
527625,938
527676,938
527726,939
527777,941
527827,940
527878,944
527929,945
527979,950
528030,953
528080,987
528131,1022
528182,1023
528232,1023
528283,1023
528333,1023
528385,1023
528435,1023
528486,1023
528536,1023
528586,1023
528637,1023
528688,1023
528739,1000
528789,961
528840,940
528890,938
528941,937
528992,937
529042,936
529093,939
529143,939
529193,941
529245,943
529295,947
529346,950
529396,974
529446,1011
529498,1023
529548,1023
529599,1023
529649,1023
529700,1023
529751,1023
529802,1023
529852,1023
529902,1023
529953,1023
530003,1023
530055,1014
530105,976
530156,944
530206,939
530256,938
530308,937
530358,940
530409,938
530459,939
530509,941
530561,943
530611,946
530662,949
530712,958
530762,995
530813,1023
530864,1023
530915,1023
530965,1023
531016,1023
531066,1023
531117,1023
531168,1023
531218,1023
531269,1023
531319,1023
531371,1023
531421,993
531472,959
531522,940
531572,938
531623,939
531674,938
531725,937
531775,938
531825,939
531876,943
531927,944
531978,947
532028,950
532078,975
532129,1011
532179,1023
532231,1023
532281,1023
532331,1023
532382,1023
532432,1023
532484,1023
532534,1023
532585,1023
532635,1023
532686,1023
532737,1016
532788,977
532838,947
532888,938
532939,939
532989,937
533040,939
533091,939
533141,939
533192,940
533242,944
533293,945
533344,949
533394,956
533445,994
533495,1023
533545,1023
533597,1023
533647,1023
533698,1023
533748,1023
533799,1023
533850,1023
533901,1023
533951,1023
534002,1023
534052,1023
534103,998
534154,962
534204,944
534255,938
534305,939
534355,939
534407,937
534457,939
534508,939
534558,943
534608,945
534660,946
534710,950
534761,972
534811,1007
534861,1023
534913,1023
534963,1023
535014,1023
535064,1023
535115,1023
535165,1023
535217,1023
535267,1023
535317,1023
535368,1023
535418,1015
535470,979
535520,944
535571,940
535621,938
535671,938
535723,938
535773,937
535824,940
535874,940
535924,946
535975,946
536026,948
536076,957
536127,992
536177,1023
536228,1023
536279,1023
536330,1023
536380,1023
536431,1023
536481,1023
536531,1023
536583,1023
536633,1023
536684,1023
536734,1023
536785,997
536836,964
536886,940
536937,938
536987,938
